EOG_left_h,EOG_right_h,EOG_left_v,EOG_right_v,head_horizontal,head_frontal,head_sagittal
-3.52646964589133,2.06650367659858,-1.33149017074443,4.43537128816645,0.0,0.0,0.0
-3.52646964589133,2.06650367659858,-1.33149017074443,4.43537128816645,0.00156092806719244,-0.000520951405633241,-0.000399097742047161
-3.52646964589133,2.06650367659858,-1.33149017074443,4.43537128816645,0.00311903655529022,-0.00104059325531125,-0.000797436921857297
-3.52646964589133,2.06650367659858,-1.33149017074443,4.43537128816645,0.00467432895675302,-0.00155892665497959,-0.00119501841254532
-3.52646964589133,2.06650367659858,-1.33149017074443,4.43537128816645,0.00622680829837918,-0.00207595294341445,-0.00159184285439551
-3.52646964589133,2.06650367659858,-1.33149017074443,4.43537128816645,0.00777647783979774,-0.00259167328476906,-0.00198791129514575
-3.52646964589133,2.06650367659858,-1.33149017074443,4.43537128816645,0.00932334084063768,-0.00310608884319663,-0.00238322420045733
-3.52646964589133,2.06650367659858,-1.33149017074443,4.43537128816645,0.0108674000948668,-0.00361920078285038,-0.00277778273448348
-3.52646964589133,2.06650367659858,-1.33149017074443,4.43537128816645,0.012408658862114,-0.00413101026788354,-0.00317158736288548
-3.52646964589133,2.06650367659858,-1.33149017074443,4.43537128816645,0.0139471208676696,-0.0046415189281106,-0.00356463901698589
-3.52646964589133,2.06650367659858,-1.33149017074443,4.43537128816645,0.0154827889055014,-0.0051507274620235,-0.00395693862810731
-3.52646964589133,2.06650367659858,-1.33149017074443,4.43537128816645,0.017015665769577,-0.00565863680094481,-0.00434848666191101
-3.52646964589133,2.06650367659858,-1.33149017074443,4.43537128816645,0.0185457561165094,-0.00616524880751967,-0.00473928451538086
-3.52646964589133,2.06650367659858,-1.33149017074443,4.43537128816645,0.0200730618089437,-0.00667056441307068,-0.00512933218851686
-3.52646964589133,2.06650367659858,-1.33149017074443,4.43537128816645,0.0215975865721703,-0.00717458454892039,-0.00551863107830286
-3.52646964589133,2.06650367659858,-1.33149017074443,4.43537128816645,0.0231193341314793,-0.00767731107771397,-0.00590718165040016
-3.52646964589133,2.06650367659858,-1.33149017074443,4.43537128816645,0.0246383063495159,-0.00817874446511269,-0.00629498483613133
-3.52646964589133,2.06650367659858,-1.33149017074443,4.43537128816645,0.0261545069515705,-0.00867888610810041,-0.00668204156681895
-3.52646964589133,2.06650367659858,-1.33149017074443,4.43537128816645,0.0276679396629334,-0.0091777378693223,-0.00706835277378559
-3.52646964589133,2.06650367659858,-1.33149017074443,4.43537128816645,0.0291786063462496,-0.00967529974877834,-0.00745391892269254
-3.52646964589133,2.06650367659858,-1.33149017074443,4.43537128816645,0.0306865107268095,-0.0101715736091137,-0.00783874094486237
-3.52646964589133,2.06650367659858,-1.33149017074443,4.43537128816645,0.0321916565299034,-0.0106665603816509,-0.00822281930595636
-3.52646964589133,2.06650367659858,-1.33149017074443,4.43537128816645,0.0336940474808216,-0.0111602619290352,-0.00860615540295839
-3.52646964589133,2.06650367659858,-1.33149017074443,4.43537128816645,0.0351936854422092,-0.0116526782512665,-0.00898874923586845
-3.52646964589133,2.06650367659858,-1.33149017074443,4.43537128816645,0.0366905741393566,-0.01214381121099,-0.00937060173600912
-3.52646964589133,2.06650367659858,-1.33149017074443,4.43537128816645,0.038184717297554,-0.0126336626708508,-0.00975171476602554
-3.52646964589133,2.06650367659858,-1.33149017074443,4.43537128816645,0.0396761149168015,-0.0131222326308489,-0.0101320883259177
-3.52646964589133,2.06650367659858,-1.33149017074443,4.43537128816645,0.0411647744476795,-0.0136095229536295,-0.0105117224156857
-3.52646964589133,2.06650367659858,-1.33149017074443,4.43537128816645,0.0426506958901882,-0.0140955345705152,-0.0108906188979745
-3.52646964589133,2.06650367659858,-1.33149017074443,4.43537128816645,0.0441338866949081,-0.014580269344151,-0.0112687787041068
-3.52646964589133,2.06650367659858,-1.33149017074443,4.43537128816645,0.0456143468618393,-0.0150637272745371,-0.0116462018340826
-3.52646964589133,2.06650367659858,-1.33149017074443,4.43537128816645,0.047092080116272,-0.0155459102243185,-0.0120228892192245
-3.52646964589133,2.06650367659858,-1.33149017074443,4.43537128816645,0.0485670864582062,-0.0160268191248178,-0.0123988417908549
-3.52646964589133,2.06650367659858,-1.33149017074443,4.43537128816645,0.0500393733382225,-0.0165064558386803,-0.0127740604802966
-3.52646964589133,2.06650367659858,-1.33149017074443,4.43537128816645,0.0515089444816113,-0.0169848203659058,-0.0131485462188721
-3.52646964589133,2.06650367659858,-1.33149017074443,4.43537128816645,0.0529757998883724,-0.0174619145691395,-0.0135222999379039
-3.52646964589133,2.06650367659858,-1.33149017074443,4.43537128816645,0.0544399432837963,-0.0179377403110266,-0.013895321637392
-3.52646964589133,2.06650367659858,-1.33149017074443,4.43537128816645,0.0559013783931732,-0.018412297591567,-0.0142676122486591
-3.52646964589133,2.06650367659858,-1.33149017074443,4.43537128816645,0.0573601089417934,-0.018885588273406,-0.0146391727030277
-3.52646964589133,2.06650367659858,-1.33149017074443,4.43537128816645,0.0588161386549473,-0.0193576123565435,-0.015010004863143
-3.52646964589133,2.06650367659858,-1.33149017074443,4.43537128816645,0.0602694675326347,-0.0198283717036247,-0.0153801077976823
-3.52646964589133,2.06650367659858,-1.33149017074443,4.43537128816645,0.0617201030254364,-0.0202978681772947,-0.0157494824379683
-3.52646964589133,2.06650367659858,-1.33149017074443,4.43537128816645,0.063168041408062,-0.0207661036401987,-0.0161181315779686
-3.52646964589133,2.06650367659858,-1.33149017074443,4.43537128816645,0.0646132901310921,-0.0212330780923367,-0.0164860542863607
-3.52646964589133,2.06650367659858,-1.33149017074443,4.43537128816645,0.0660558566451073,-0.0216987915337086,-0.0168532505631447
-3.52646964589133,2.06650367659858,-1.33149017074443,4.43537128816645,0.0674957409501076,-0.0221632458269596,-0.0172197241336107
-3.52646964589133,2.06650367659858,-1.33149017074443,4.43537128816645,0.068932943046093,-0.0226264428347349,-0.0175854731351137
-3.52646964589133,2.06650367659858,-1.33149017074443,4.43537128816645,0.0703674703836441,-0.0230883844196796,-0.0179504994302988
-3.52646964589133,2.06650367659858,-1.33149017074443,4.43537128816645,0.0717993229627609,-0.0235490705817938,-0.018314803019166
-3.52646964589133,2.06650367659858,-1.33149017074443,4.43537128816645,0.0732285007834435,-0.0240085031837225,-0.0186783857643604
-3.52646964589133,2.06650367659858,-1.33149017074443,4.43537128816645,0.0746550112962723,-0.0244666822254658,-0.0190412476658821
-3.52646964589133,2.06650367659858,-1.33149017074443,4.43537128816645,0.076078861951828,-0.0249236095696688,-0.019403388723731
-3.52646964589133,2.06650367659858,-1.33149017074443,4.43537128816645,0.0775000527501106,-0.0253792870789766,-0.0197648108005524
-3.52646964589133,2.06650367659858,-1.33149017074443,4.43537128816645,0.0789185836911201,-0.0258337147533894,-0.0201255157589912
-3.52646964589133,2.06650367659858,-1.33149017074443,4.43537128816645,0.0803344622254372,-0.0262868944555521,-0.0204855017364025
-3.52646964589133,2.06650367659858,-1.33149017074443,4.43537128816645,0.0817476883530617,-0.02673882804811,-0.0208447724580765
-3.52646964589133,2.06650367659858,-1.33149017074443,4.43537128816645,0.0831582620739937,-0.0271895155310631,-0.021203326061368
-3.52646964589133,2.06650367659858,-1.33149017074443,4.43537128816645,0.0845661908388138,-0.0276389587670565,-0.0215611644089222
-3.52646964589133,2.06650367659858,-1.33149017074443,4.43537128816645,0.085971474647522,-0.0280871577560902,-0.0219182893633842
-3.52646964589133,2.06650367659858,-1.33149017074443,4.43537128816645,0.0873741209506989,-0.0285341143608093,-0.022274699062109
-3.52646964589133,2.06650367659858,-1.33149017074443,4.43537128816645,0.0887741297483444,-0.0289798304438591,-0.0226303972303867
-3.52646964589133,2.06650367659858,-1.33149017074443,4.43537128816645,0.0901715084910393,-0.0294243060052395,-0.0229853820055723
-3.52646964589133,2.06650367659858,-1.33149017074443,4.43537128816645,0.0915662571787834,-0.0298675429075956,-0.0233396552503109
-3.52646964589133,2.06650367659858,-1.33149017074443,4.43537128816645,0.0929583758115768,-0.0303095411509275,-0.0236932188272476
-3.52646964589133,2.06650367659858,-1.33149017074443,4.43537128816645,0.0943478718400002,-0.0307503025978804,-0.0240460727363825
-3.52646964589133,2.06650367659858,-1.33149017074443,4.43537128816645,0.0957347452640533,-0.0311898291110992,-0.0243982169777155
-3.52646964589133,2.06650367659858,-1.33149017074443,4.43537128816645,0.097119003534317,-0.0316281206905842,-0.0247496534138918
-3.52646964589133,2.06650367659858,-1.33149017074443,4.43537128816645,0.0985006466507912,-0.0320651791989803,-0.0251003820449114
-3.52646964589133,2.06650367659858,-1.33149017074443,4.43537128816645,0.0998796746134758,-0.032501008361578,-0.0254504047334194
-3.52646964589133,2.06650367659858,-1.33149017074443,4.43537128816645,0.101256094872952,-0.0329356044530869,-0.0257997214794159
-3.52646964589133,2.06650367659858,-1.33149017074443,4.43537128816645,0.102629907429218,-0.0333689711987972,-0.0261483322829008
-3.52646964589133,2.06650367659858,-1.33149017074443,4.43537128816645,0.104001119732857,-0.0338011085987091,-0.0264962390065193
-3.52646964589133,2.06650367659858,-1.33149017074443,4.43537128816645,0.105369731783867,-0.0342320203781128,-0.0268434416502714
-3.52646964589133,2.06650367659858,-1.33149017074443,4.43537128816645,0.106735751032829,-0.0346617065370083,-0.0271899420768023
-3.52646964589133,2.06650367659858,-1.33149017074443,4.43537128816645,0.108099177479744,-0.0350901670753956,-0.0275357402861118
-3.52646964589133,2.06650367659858,-1.33149017074443,4.43537128816645,0.109460011124611,-0.0355174019932747,-0.0278808362782002
-3.52646964589133,2.06650367659858,-1.33149017074443,4.43537128816645,0.110818259418011,-0.0359434150159359,-0.0282252319157124
-3.52646964589133,2.06650367659858,-1.33149017074443,4.43537128816645,0.112173922359943,-0.0363682061433792,-0.0285689271986485
-3.52646964589133,2.06650367659858,-1.33149017074443,4.43537128816645,0.11352700740099,-0.0367917791008949,-0.0289119239896536
-3.52646964589133,2.06650367659858,-1.33149017074443,4.43537128816645,0.114877514541149,-0.0372141301631927,-0.0292542222887278
-3.52646964589133,2.06650367659858,-1.33149017074443,4.43537128816645,0.116225443780422,-0.037635263055563,-0.029595822095871
-3.52646964589133,2.06650367659858,-1.33149017074443,4.43537128816645,0.117570802569389,-0.0380551815032959,-0.0299367252737284
-3.52646964589133,2.06650367659858,-1.33149017074443,4.43537128816645,0.118913590908051,-0.0384738817811012,-0.0302769336849451
-3.52646964589133,2.06650367659858,-1.33149017074443,4.43537128816645,0.120253816246986,-0.0388913676142693,-0.030616445466876
-3.52646964589133,2.06650367659858,-1.33149017074443,4.43537128816645,0.121591478586197,-0.0393076427280903,-0.0309552643448114
-3.52646964589133,2.06650367659858,-1.33149017074443,4.43537128816645,0.122926577925682,-0.039722703397274,-0.0312933884561062
-3.52646964589133,2.06650367659858,-1.33149017074443,4.43537128816645,0.124259121716022,-0.0401365533471107,-0.0316308178007603
-3.52646964589133,2.06650367659858,-1.33149017074443,4.43537128816645,0.125589117407799,-0.0405491925776005,-0.0319675579667091
-3.52646964589133,2.06650367659858,-1.33149017074443,4.43537128816645,0.12691655755043,-0.0409606248140335,-0.0323036052286625
-3.52646964589133,2.06650367659858,-1.33149017074443,4.43537128816645,0.128241449594498,-0.0413708463311195,-0.0326389633119106
-3.52646964589133,2.06650367659858,-1.33149017074443,4.43537128816645,0.129563793540001,-0.0417798645794392,-0.0329736284911633
-3.52646964589133,2.06650367659858,-1.33149017074443,4.43537128816645,0.130883604288101,-0.0421876758337021,-0.0333076044917107
-3.52646964589133,2.06650367659858,-1.33149017074443,4.43537128816645,0.132200866937637,-0.0425942838191986,-0.0336408950388432
-3.52646964589133,2.06650367659858,-1.33149017074443,4.43537128816645,0.133515596389771,-0.0429996885359287,-0.0339734964072704
-3.52646964589133,2.06650367659858,-1.33149017074443,4.43537128816645,0.134827792644501,-0.0434038899838924,-0.0343054123222828
-3.52646964589133,2.06650367659858,-1.33149017074443,4.43537128816645,0.136137470602989,-0.0438068918883801,-0.0346366390585899
-3.52646964589133,2.06650367659858,-1.33149017074443,4.43537128816645,0.137444615364075,-0.0442086942493916,-0.0349671803414822
-3.52646964589133,2.06650367659858,-1.33149017074443,4.43537128816645,0.138749241828918,-0.044609297066927,-0.0352970398962498
-3.52646964589133,2.06650367659858,-1.33149017074443,4.43537128816645,0.14005134999752,-0.0450087003409863,-0.0356262139976025
-3.52646964589133,2.06650367659858,-1.33149017074443,4.43537128816645,0.141350939869881,-0.0454069077968597,-0.0359547063708305
-3.52646964589133,2.06650367659858,-1.33149017074443,4.43537128816645,0.142648011445999,-0.0458039194345474,-0.0362825132906437
-3.52646964589133,2.06650367659858,-1.33149017074443,4.43537128816645,0.143942579627037,-0.0461997389793396,-0.0366096384823322
-3.52646964589133,2.06650367659858,-1.33149017074443,4.43537128816645,0.145234629511833,-0.046594362705946,-0.0369360856711864
-3.52646964589133,2.06650367659858,-1.33149017074443,4.43537128816645,0.146524176001549,-0.0469877943396568,-0.037261851131916
-3.52646964589133,2.06650367659858,-1.33149017074443,4.43537128816645,0.147811219096184,-0.0473800376057625,-0.0375869385898113
-3.52646964589133,2.06650367659858,-1.33149017074443,4.43537128816645,0.149095773696899,-0.0477710925042629,-0.0379113480448723
-3.52646964589133,2.06650367659858,-1.33149017074443,4.43537128816645,0.150377824902534,-0.0481609553098679,-0.0382350794970989
-3.52646964589133,2.06650367659858,-1.33149017074443,4.43537128816645,0.15165738761425,-0.0485496334731579,-0.0385581329464912
-3.52646964589133,2.06650367659858,-1.33149017074443,4.43537128816645,0.152934461832047,-0.0489371232688427,-0.0388805083930492
-3.52646964589133,2.06650367659858,-1.33149017074443,4.43537128816645,0.154209047555923,-0.0493234284222126,-0.0392022095620632
-3.52646964589133,2.06650367659858,-1.33149017074443,4.43537128816645,0.155481144785881,-0.0497085489332676,-0.0395232364535332
-3.52646964589133,2.06650367659858,-1.33149017074443,4.43537128816645,0.15675076842308,-0.050092488527298,-0.0398435890674591
-3.52646964589133,2.06650367659858,-1.33149017074443,4.43537128816645,0.15801790356636,-0.0504752472043037,-0.040163267403841
-3.52646964589133,2.06650367659858,-1.33149017074443,4.43537128816645,0.159282565116882,-0.0508568249642849,-0.0404822714626789
-3.52646964589133,2.06650367659858,-1.33149017074443,4.43537128816645,0.160544753074646,-0.0512372218072414,-0.0408006049692631
-3.52646964589133,2.06650367659858,-1.33149017074443,4.43537128816645,0.161804482340813,-0.0516164414584637,-0.0411182679235935
-3.52646964589133,2.06650367659858,-1.33149017074443,4.43537128816645,0.163061738014221,-0.0519944839179516,-0.0414352603256702
-3.52646964589133,2.06650367659858,-1.33149017074443,4.43537128816645,0.164316534996033,-0.0523713491857052,-0.0417515821754932
-3.52646964589133,2.06650367659858,-1.33149017074443,4.43537128816645,0.165568873286247,-0.0527470409870148,-0.0420672371983528
-3.52646964589133,2.06650367659858,-1.33149017074443,4.43537128816645,0.166818752884865,-0.0531215593218803,-0.0423822216689587
-3.52646964589133,2.06650367659858,-1.33149017074443,4.43537128816645,0.168066173791885,-0.0534949041903019,-0.0426965393126011
-3.52646964589133,2.06650367659858,-1.33149017074443,4.43537128816645,0.16931115090847,-0.0538670755922794,-0.0430101901292801
-3.52646964589133,2.06650367659858,-1.33149017074443,4.43537128816645,0.170553684234619,-0.0542380772531033,-0.0433231741189957
-3.52646964589133,2.06650367659858,-1.33149017074443,4.43537128816645,0.171793773770332,-0.0546079091727734,-0.0436354950070381
-3.52646964589133,2.06650367659858,-1.33149017074443,4.43537128816645,0.17303141951561,-0.05497657507658,-0.0439471490681171
-3.52646964589133,2.06650367659858,-1.33149017074443,4.43537128816645,0.174266621470451,-0.055344071239233,-0.044258140027523
-3.52646964589133,2.06650367659858,-1.33149017074443,4.43537128816645,0.175499379634857,-0.0557104013860226,-0.0445684678852558
-3.52646964589133,2.06650367659858,-1.33149017074443,4.43537128816645,0.176729708909988,-0.056075569242239,-0.0448781326413155
-3.52646964589133,2.06650367659858,-1.33149017074443,4.43537128816645,0.177957609295845,-0.056439571082592,-0.0451871380209923
-3.52646964589133,2.06650367659858,-1.33149017074443,4.43537128816645,0.179183080792427,-0.0568024106323719,-0.045495480298996
-3.52646964589133,2.06650367659858,-1.33149017074443,4.43537128816645,0.180406138300896,-0.0571640878915787,-0.0458031632006168
-3.52646964589133,2.06650367659858,-1.33149017074443,4.43537128816645,0.18162676692009,-0.0575246065855026,-0.0461101867258549
-3.52646964589133,2.06650367659858,-1.33149017074443,4.43537128816645,0.18284498155117,-0.0578839667141438,-0.0464165508747101
-3.52646964589133,2.06650367659858,-1.33149017074443,4.43537128816645,0.184060782194138,-0.0582421682775021,-0.0467222593724728
-3.52646964589133,2.06650367659858,-1.33149017074443,4.43537128816645,0.185274168848991,-0.0585992112755775,-0.0470273084938526
-3.52646964589133,2.06650367659858,-1.33149017074443,4.43537128816645,0.186485141515732,-0.0589550994336605,-0.0473317019641399
-3.52646964589133,2.06650367659858,-1.33149017074443,4.43537128816645,0.18769371509552,-0.0593098327517509,-0.0476354397833347
-3.52646964589133,2.06650367659858,-1.33149017074443,4.43537128816645,0.188899874687195,-0.0596634112298489,-0.047938521951437
-3.52646964589133,2.06650367659858,-1.33149017074443,4.43537128816645,0.190103635191917,-0.0600158385932446,-0.048240952193737
-3.52646964589133,2.06650367659858,-1.33149017074443,4.43537128816645,0.191304996609688,-0.060367114841938,-0.0485427267849445
-3.52646964589133,2.06650367659858,-1.33149017074443,4.43537128816645,0.192503973841667,-0.0607172399759293,-0.0488438494503498
-3.52646964589133,2.06650367659858,-1.33149017074443,4.43537128816645,0.193700551986694,-0.0610662139952183,-0.0491443201899529
-3.52646964589133,2.06650367659858,-1.33149017074443,4.43537128816645,0.19489474594593,-0.0614140406250954,-0.0494441390037537
-3.52646964589133,2.06650367659858,-1.33149017074443,4.43537128816645,0.196086555719376,-0.0617607198655605,-0.0497433096170425
-3.52646964589133,2.06650367659858,-1.33149017074443,4.43537128816645,0.19727598130703,-0.0621062517166138,-0.0500418283045292
-3.52646964589133,2.06650367659858,-1.33149017074443,4.43537128816645,0.198463022708893,-0.0624506399035454,-0.0503396987915039
-3.52646964589133,2.06650367659858,-1.33149017074443,4.43537128816645,0.199647694826126,-0.0627938881516457,-0.0506369210779667
-3.52646964589133,2.06650367659858,-1.33149017074443,4.43537128816645,0.200829982757568,-0.063135989010334,-0.0509334951639175
-3.52646964589133,2.06650367659858,-1.33149017074443,4.43537128816645,0.202009901404381,-0.063476949930191,-0.0512294247746468
-3.52646964589133,2.06650367659858,-1.33149017074443,4.43537128816645,0.203187450766563,-0.0638167709112167,-0.051524706184864
-3.52646964589133,2.06650367659858,-1.33149017074443,4.43537128816645,0.204362645745277,-0.0641554519534111,-0.0518193431198597
-3.52646964589133,2.06650367659858,-1.33149017074443,4.43537128816645,0.205535471439362,-0.0644929930567741,-0.0521133355796337
-3.52646964589133,2.06650367659858,-1.33149017074443,4.43537128816645,0.206705942749977,-0.0648294016718864,-0.0524066835641861
-3.52646964589133,2.06650367659858,-1.33149017074443,4.43537128816645,0.207874059677124,-0.0651646703481674,-0.0526993870735168
-3.52646964589133,2.06650367659858,-1.33149017074443,4.43537128816645,0.209039822220802,-0.0654988065361977,-0.0529914498329163
-3.52646964589133,2.06650367659858,-1.33149017074443,4.43537128816645,0.210203230381012,-0.0658318102359772,-0.0532828718423843
-3.52646964589133,2.06650367659858,-1.33149017074443,4.43537128816645,0.211364284157753,-0.0661636739969254,-0.0535736531019211
-3.52646964589133,2.06650367659858,-1.33149017074443,4.43537128816645,0.212522998452187,-0.0664944127202034,-0.0538637936115265
-3.52646964589133,2.06650367659858,-1.33149017074443,4.43537128816645,0.213679373264313,-0.0668240189552307,-0.0541532933712006
-3.52646964589133,2.06650367659858,-1.33149017074443,4.43537128816645,0.214833408594131,-0.0671524927020073,-0.0544421561062336
-3.52646964589133,2.06650367659858,-1.33149017074443,4.43537128816645,0.215985104441643,-0.0674798414111137,-0.0547303780913353
-3.52646964589133,2.06650367659858,-1.33149017074443,4.43537128816645,0.217134460806847,-0.06780606508255,-0.055017963051796
-3.52646964589133,2.06650367659858,-1.33149017074443,4.43537128816645,0.218281492590904,-0.0681311562657356,-0.0553049109876156
-3.52646964589133,2.06650367659858,-1.33149017074443,4.43537128816645,0.219426199793816,-0.0684551224112511,-0.0555912218987942
-3.52646964589133,2.06650367659858,-1.33149017074443,4.43537128816645,0.220568582415581,-0.0687779635190964,-0.055876899510622
-3.52646964589133,2.06650367659858,-1.33149017074443,4.43537128816645,0.2217086404562,-0.0690996870398521,-0.0561619438230991
-3.52646964589133,2.06650367659858,-1.33149017074443,4.43537128816645,0.222846388816833,-0.0694202855229378,-0.0564463511109352
-3.52646964589133,2.06650367659858,-1.33149017074443,4.43537128816645,0.223981812596321,-0.0697397664189339,-0.0567301288247108
-3.52646964589133,2.06650367659858,-1.33149017074443,4.43537128816645,0.225114926695824,-0.0700581297278404,-0.0570132732391357
-3.52646964589133,2.06650367659858,-1.33149017074443,4.43537128816645,0.226245731115341,-0.0703753679990768,-0.0572957843542099
-3.52646964589133,2.06650367659858,-1.33149017074443,4.43537128816645,0.227374225854874,-0.0706914886832237,-0.0575776658952236
-3.52646964589133,2.06650367659858,-1.33149017074443,4.43537128816645,0.228500410914421,-0.0710064992308617,-0.0578589178621769
-3.52646964589133,2.06650367659858,-1.33149017074443,4.43537128816645,0.229624301195145,-0.0713203921914101,-0.0581395402550697
-3.52646964589133,2.06650367659858,-1.33149017074443,4.43537128816645,0.230745896697044,-0.0716331675648689,-0.0584195330739021
-3.52646964589133,2.06650367659858,-1.33149017074443,4.43537128816645,0.23186519742012,-0.0719448328018188,-0.0586988963186741
-3.52646964589133,2.06650367659858,-1.33149017074443,4.43537128816645,0.232982203364372,-0.0722553879022598,-0.0589776337146759
-3.52646964589133,2.06650367659858,-1.33149017074443,4.43537128816645,0.2340969145298,-0.0725648328661919,-0.0592557452619076
-3.52646964589133,2.06650367659858,-1.33149017074443,4.43537128816645,0.235209345817566,-0.072873167693615,-0.0595332309603691
-3.52646964589133,2.06650367659858,-1.33149017074443,4.43537128816645,0.236319482326508,-0.0731803923845291,-0.0598100908100605
-3.52646964589133,2.06650367659858,-1.33149017074443,4.43537128816645,0.237427338957787,-0.0734865069389343,-0.0600863248109818
-3.52646964589133,2.06650367659858,-1.33149017074443,4.43537128816645,0.238532915711403,-0.0737915188074112,-0.0603619366884232
-3.52646964589133,2.06650367659858,-1.33149017074443,4.43537128816645,0.239636227488518,-0.0740954205393791,-0.0606369264423847
-3.52646964589133,2.06650367659858,-1.33149017074443,4.43537128816645,0.24073725938797,-0.0743982195854187,-0.0609112940728664
-3.52646964589133,2.06650367659858,-1.33149017074443,4.43537128816645,0.241836026310921,-0.0746999159455299,-0.0611850395798683
-3.52646964589133,2.06650367659858,-1.33149017074443,4.43537128816645,0.24293252825737,-0.0750005096197128,-0.0614581629633904
-3.52646964589133,2.06650367659858,-1.33149017074443,4.43537128816645,0.244026765227318,-0.0753000006079674,-0.0617306679487228
-3.52646964589133,2.06650367659858,-1.33149017074443,4.43537128816645,0.245118737220764,-0.0755983963608742,-0.0620025508105755
-3.52646964589133,2.06650367659858,-1.33149017074443,4.43537128816645,0.24620845913887,-0.0758956894278526,-0.0622738152742386
-3.52646964589133,2.06650367659858,-1.33149017074443,4.43537128816645,0.247295916080475,-0.0761918872594833,-0.0625444650650024
-3.52646964589133,2.06650367659858,-1.33149017074443,4.43537128816645,0.248381122946739,-0.0764869824051857,-0.0628144964575768
-3.52646964589133,2.06650367659858,-1.33149017074443,4.43537128816645,0.249464079737663,-0.0767809823155403,-0.0630839094519615
-3.52646964589133,2.06650367659858,-1.33149017074443,4.43537128816645,0.250544786453247,-0.0770738869905472,-0.0633527040481567
-3.52646964589133,2.06650367659858,-1.33149017074443,4.43537128816645,0.251623243093491,-0.0773657038807869,-0.063620887696743
-3.52646964589133,2.06650367659858,-1.33149017074443,4.43537128816645,0.252699464559555,-0.0776564255356789,-0.0638884529471397
-3.52646964589133,2.06650367659858,-1.33149017074443,4.43537128816645,0.25377345085144,-0.0779460594058037,-0.0641554072499275
-3.52646964589133,2.06650367659858,-1.33149017074443,4.43537128816645,0.254845201969147,-0.0782345980405808,-0.0644217506051064
-3.52646964589133,2.06650367659858,-1.33149017074443,4.43537128816645,0.255914717912674,-0.0785220488905907,-0.0646874755620956
-3.52646964589133,2.06650367659858,-1.33149017074443,4.43537128816645,0.256981998682022,-0.0788084119558334,-0.064952589571476
-3.52646964589133,2.06650367659858,-1.33149017074443,4.43537128816645,0.258047074079514,-0.0790936872363091,-0.0652170926332474
-3.52646964589133,2.06650367659858,-1.33149017074443,4.43537128816645,0.259109914302826,-0.0793778747320175,-0.0654809847474098
-3.52646964589133,2.06650367659858,-1.33149017074443,4.43537128816645,0.260170519351959,-0.0796609818935394,-0.0657442733645439
-3.52646964589133,2.06650367659858,-1.33149017074443,4.43537128816645,0.261228919029236,-0.0799430012702942,-0.0660069510340691
-3.52646964589133,2.06650367659858,-1.33149017074443,4.43537128816645,0.262285113334656,-0.0802239403128624,-0.0662690177559853
-3.52646964589133,2.06650367659858,-1.33149017074443,4.43537128816645,0.263339072465897,-0.080503799021244,-0.0665304809808731
-3.52646964589133,2.06650367659858,-1.33149017074443,4.43537128816645,0.264390826225281,-0.0807825699448586,-0.066791333258152
-3.52646964589133,2.06650367659858,-1.33149017074443,4.43537128816645,0.265440374612808,-0.0810602679848671,-0.0670515820384026
-3.52646964589133,2.06650367659858,-1.33149017074443,4.43537128816645,0.266487717628479,-0.0813368856906891,-0.0673112273216248
-3.52646964589133,2.06650367659858,-1.33149017074443,4.43537128816645,0.267532855272293,-0.0816124230623245,-0.067570261657238
-3.52646964589133,2.06650367659858,-1.33149017074443,4.43537128816645,0.268575817346573,-0.081886887550354,-0.0678286924958229
-3.52646964589133,2.06650367659858,-1.33149017074443,4.43537128816645,0.269616574048996,-0.0821602717041969,-0.0680865198373795
-3.52646964589133,2.06650367659858,-1.33149017074443,4.43537128816645,0.270655125379562,-0.0824325829744339,-0.0683437511324883
-3.52646964589133,2.06650367659858,-1.33149017074443,4.43537128816645,0.271691501140594,-0.0827038213610649,-0.0686003789305687
-3.52646964589133,2.06650367659858,-1.33149017074443,4.43537128816645,0.272725701332092,-0.08297398686409,-0.0688564032316208
-3.52646964589133,2.06650367659858,-1.33149017074443,4.43537128816645,0.273757696151733,-0.0832430794835091,-0.0691118314862251
-3.52646964589133,2.06650367659858,-1.33149017074443,4.43537128816645,0.27478751540184,-0.0835111066699028,-0.0693666562438011
-3.52646964589133,2.06650367659858,-1.33149017074443,4.43537128816645,0.275815159082413,-0.0837780609726906,-0.0696208849549294
-3.52646964589133,2.06650367659858,-1.33149017074443,4.43537128816645,0.276840627193451,-0.084043949842453,-0.0698745101690292
-3.52646964589133,2.06650367659858,-1.33149017074443,4.43537128816645,0.277863919734955,-0.0843087732791901,-0.0701275393366814
-3.52646964589133,2.06650367659858,-1.33149017074443,4.43537128816645,0.278885036706924,-0.0845725312829018,-0.0703799724578857
-3.52646964589133,2.06650367659858,-1.33149017074443,4.43537128816645,0.27990397810936,-0.0848352238535881,-0.0706318095326424
-3.52646964589133,2.06650367659858,-1.33149017074443,4.43537128816645,0.280920773744583,-0.0850968509912491,-0.0708830505609512
-3.52646964589133,2.06650367659858,-1.33149017074443,4.43537128816645,0.281935393810272,-0.0853574126958847,-0.0711336955428123
-3.52646964589133,2.06650367659858,-1.33149017074443,4.43537128816645,0.282947868108749,-0.0856169164180756,-0.0713837444782257
-3.52646964589133,2.06650367659858,-1.33149017074443,4.43537128816645,0.283958166837692,-0.0858753621578217,-0.0716332048177719
-3.52646964589133,2.06650367659858,-1.33149017074443,4.43537128816645,0.284966319799423,-0.0861327424645424,-0.0718820691108704
-3.52646964589133,2.06650367659858,-1.33149017074443,4.43537128816645,0.285972326993942,-0.0863890647888184,-0.0721303448081017
-3.52646964589133,2.06650367659858,-1.33149017074443,4.43537128816645,0.286976188421249,-0.0866443291306496,-0.0723780244588852
-3.52646964589133,2.06650367659858,-1.33149017074443,4.43537128816645,0.287977904081345,-0.0868985429406166,-0.0726251155138016
-3.52646964589133,2.06650367659858,-1.33149017074443,4.43537128816645,0.288977473974228,-0.0871516987681389,-0.0728716179728508
-3.52646964589133,2.06650367659858,-1.33149017074443,4.43537128816645,0.289974898099899,-0.0874037966132164,-0.0731175318360329
-3.52646964589133,2.06650367659858,-1.33149017074443,4.43537128816645,0.290970206260681,-0.0876548439264297,-0.0733628571033478
-3.52646964589133,2.06650367659858,-1.33149017074443,4.43537128816645,0.291963368654251,-0.0879048407077789,-0.0736075937747955
-3.52646964589133,2.06650367659858,-1.33149017074443,4.43537128816645,0.292954385280609,-0.0881537869572639,-0.0738517418503761
-3.52646964589133,2.06650367659858,-1.33149017074443,4.43537128816645,0.293943285942078,-0.0884016826748848,-0.0740953013300896
-3.52646964589133,2.06650367659858,-1.33149017074443,4.43537128816645,0.294930070638657,-0.0886485278606415,-0.0743382796645164
-3.52646964589133,2.06650367659858,-1.33149017074443,4.43537128816645,0.295914709568024,-0.088894322514534,-0.0745806694030762
-3.52646964589133,2.06650367659858,-1.33149017074443,4.43537128816645,0.296897232532501,-0.0891390740871429,-0.0748224779963493
-3.52646964589133,2.06650367659858,-1.33149017074443,4.43537128816645,0.297877639532089,-0.0893827825784683,-0.0750636979937553
-3.52646964589133,2.06650367659858,-1.33149017074443,4.43537128816645,0.298855930566788,-0.0896254405379295,-0.0753043368458748
-3.52646964589133,2.06650367659858,-1.33149017074443,4.43537128816645,0.299832105636597,-0.0898670554161072,-0.0755443945527077
-3.52646964589133,2.06650367659858,-1.33149017074443,4.43537128816645,0.300806194543839,-0.0901076272130013,-0.075783871114254
-3.52646964589133,2.06650367659858,-1.33149017074443,4.43537128816645,0.301778167486191,-0.0903471559286118,-0.0760227665305138
-3.52646964589133,2.06650367659858,-1.33149017074443,4.43537128816645,0.302748024463654,-0.0905856490135193,-0.076261080801487
-3.52646964589133,2.06650367659858,-1.33149017074443,4.43537128816645,0.303715795278549,-0.0908230990171433,-0.0764988139271736
-3.52646964589133,2.06650367659858,-1.33149017074443,4.43537128816645,0.304681450128555,-0.0910595133900642,-0.0767359659075737
-3.52646964589133,2.06650367659858,-1.33149017074443,4.43537128816645,0.305645018815994,-0.0912948921322823,-0.0769725441932678
-3.52646964589133,2.06650367659858,-1.33149017074443,4.43537128816645,0.306606501340866,-0.0915292352437973,-0.0772085413336754
-3.52646964589133,2.06650367659858,-1.33149017074443,4.43537128816645,0.307565897703171,-0.0917625427246094,-0.077443964779377
-3.52646964589133,2.06650367659858,-1.33149017074443,4.43537128816645,0.308523207902908,-0.0919948145747185,-0.077678807079792
-3.52646964589133,2.06650367659858,-1.33149017074443,4.43537128816645,0.309478431940079,-0.0922260507941246,-0.0779130756855011
-3.52646964589133,2.06650367659858,-1.33149017074443,4.43537128816645,0.310431569814682,-0.0924562588334084,-0.0781467705965042
-3.52646964589133,2.06650367659858,-1.33149017074443,4.43537128816645,0.311382621526718,-0.0926854312419891,-0.0783798918128014
-3.52646964589133,2.06650367659858,-1.33149017074443,4.43537128816645,0.312331587076187,-0.0929135754704475,-0.0786124393343925
-3.52646964589133,2.06650367659858,-1.33149017074443,4.43537128816645,0.313278496265411,-0.0931406915187836,-0.0788444131612778
-3.52646964589133,2.06650367659858,-1.33149017074443,4.43537128816645,0.314223319292068,-0.0933667793869972,-0.079075813293457
-3.52646964589133,2.06650367659858,-1.33149017074443,4.43537128816645,0.315166085958481,-0.0935918390750885,-0.0793066471815109
-3.52646964589133,2.06650367659858,-1.33149017074443,4.43537128816645,0.316106796264648,-0.0938158705830574,-0.0795369073748589
-3.52646964589133,2.06650367659858,-1.33149017074443,4.43537128816645,0.317045450210571,-0.0940388813614845,-0.0797665938735008
-3.52646964589133,2.06650367659858,-1.33149017074443,4.43537128816645,0.317982017993927,-0.0942608639597893,-0.0799957141280174
-3.52646964589133,2.06650367659858,-1.33149017074443,4.43537128816645,0.318916529417038,-0.0944818258285522,-0.0802242681384087
-3.52646964589133,2.06650367659858,-1.33149017074443,4.43537128816645,0.319848984479904,-0.0947017669677734,-0.0804522484540939
-3.52646964589133,2.06650367659858,-1.33149017074443,4.43537128816645,0.320779412984848,-0.0949206873774529,-0.0806796625256538
-3.52646964589133,2.06650367659858,-1.33149017074443,4.43537128816645,0.321707785129547,-0.0951385870575905,-0.0809065103530884
-3.52646964589133,2.06650367659858,-1.33149017074443,4.43537128816645,0.322634100914001,-0.0953554660081863,-0.0811327919363976
-3.52646964589133,2.06650367659858,-1.33149017074443,4.43537128816645,0.323558390140533,-0.0955713242292404,-0.0813585072755814
-3.52646964589133,2.06650367659858,-1.33149017074443,4.43537128816645,0.324480623006821,-0.0957861691713333,-0.0815836563706398
-3.52646964589133,2.06650367659858,-1.33149017074443,4.43537128816645,0.325400829315186,-0.096000000834465,-0.0818082466721535
-3.52646964589133,2.06650367659858,-1.33149017074443,4.43537128816645,0.326318979263306,-0.0962128192186356,-0.0820322707295418
-3.52646964589133,2.06650367659858,-1.33149017074443,4.43537128816645,0.327235102653503,-0.0964246168732643,-0.0822557359933853
-3.52646964589133,2.06650367659858,-1.33149017074443,4.43537128816645,0.328149199485779,-0.0966354086995125,-0.0824786350131035
-3.52646964589133,2.06650367659858,-1.33149017074443,4.43537128816645,0.329061269760132,-0.0968451872467995,-0.0827009752392769
-3.52646964589133,2.06650367659858,-1.33149017074443,4.43537128816645,0.329971313476563,-0.0970539525151253,-0.0829227566719055
-3.52646964589133,2.06650367659858,-1.33149017074443,4.43537128816645,0.330879330635071,-0.0972617119550705,-0.0831439718604088
-3.52646964589133,2.06650367659858,-1.33149017074443,4.43537128816645,0.331785351037979,-0.0974684581160545,-0.0833646282553673
-3.52646964589133,2.06650367659858,-1.33149017074443,4.43537128816645,0.332689344882965,-0.097674198448658,-0.083584725856781
-3.52646964589133,2.06650367659858,-1.33149017074443,4.43537128816645,0.333591312170029,-0.0978789329528809,-0.08380426466465
-3.52646964589133,2.06650367659858,-1.33149017074443,4.43537128816645,0.334491282701492,-0.0980826616287231,-0.0840232521295547
-3.52646964589133,2.06650367659858,-1.33149017074443,4.43537128816645,0.335389226675034,-0.0982853844761848,-0.0842416808009148
-3.52646964589133,2.06650367659858,-1.33149017074443,4.43537128816645,0.336285173892975,-0.0984871089458466,-0.08445955067873
-3.52646964589133,2.06650367659858,-1.33149017074443,4.43537128816645,0.337179124355316,-0.0986878275871277,-0.0846768692135811
-3.52646964589133,2.06650367659858,-1.33149017074443,4.43537128816645,0.338071078062058,-0.0988875478506088,-0.0848936289548874
-3.52646964589133,2.06650367659858,-1.33149017074443,4.43537128816645,0.338961035013199,-0.0990862622857094,-0.0851098373532295
-3.52646964589133,2.06650367659858,-1.33149017074443,4.43537128816645,0.33984899520874,-0.0992839783430099,-0.0853254944086075
-3.52646964589133,2.06650367659858,-1.33149017074443,4.43537128816645,0.340734958648682,-0.0994806960225105,-0.0855405926704407
-3.52646964589133,2.06650367659858,-1.33149017074443,4.43537128816645,0.341618925333023,-0.0996764153242111,-0.0857551395893097
-3.52646964589133,2.06650367659858,-1.33149017074443,4.43537128816645,0.342500925064087,-0.0998711436986923,-0.0859691351652145
-3.52646964589133,2.06650367659858,-1.33149017074443,4.43537128816645,0.343380928039551,-0.100064873695374,-0.0861825793981552
-3.52646964589133,2.06650367659858,-1.33149017074443,4.43537128816645,0.344258964061737,-0.100257612764835,-0.0863954797387123
-3.52646964589133,2.06650367659858,-1.33149017074443,4.43537128816645,0.345135003328323,-0.100449353456497,-0.0866078287363052
-3.52646964589133,2.06650367659858,-1.33149017074443,4.43537128816645,0.346009075641632,-0.10064010322094,-0.086819626390934
-3.52646964589133,2.06650367659858,-1.33149017074443,4.43537128816645,0.346881181001663,-0.100829862058163,-0.0870308801531792
-3.52646964589133,2.06650367659858,-1.33149017074443,4.43537128816645,0.347751319408417,-0.101018629968166,-0.0872415825724602
-3.52646964589133,2.06650367659858,-1.33149017074443,4.43537128816645,0.34861946105957,-0.101206414401531,-0.0874517410993576
-3.52646964589133,2.06650367659858,-1.33149017074443,4.43537128816645,0.349485665559769,-0.101393207907677,-0.0876613557338715
-3.52646964589133,2.06650367659858,-1.33149017074443,4.43537128816645,0.350349903106689,-0.101579010486603,-0.0878704190254211
-3.52646964589133,2.06650367659858,-1.33149017074443,4.43537128816645,0.351212173700333,-0.10176382958889,-0.0880789384245873
-3.52646964589133,2.06650367659858,-1.33149017074443,4.43537128816645,0.352072477340698,-0.101947665214539,-0.0882869139313698
-3.52646964589133,2.06650367659858,-1.33149017074443,4.43537128816645,0.352930843830109,-0.102130517363548,-0.0884943455457687
-3.52646964589133,2.06650367659858,-1.33149017074443,4.43537128816645,0.353787243366241,-0.102312386035919,-0.0887012332677841
-3.52646964589133,2.06650367659858,-1.33149017074443,4.43537128816645,0.354641705751419,-0.102493271231651,-0.0889075845479965
-3.52646964589133,2.06650367659858,-1.33149017074443,4.43537128816645,0.355494201183319,-0.102673172950745,-0.0891133919358253
-3.52646964589133,2.06650367659858,-1.33149017074443,4.43537128816645,0.356344759464264,-0.10285209864378,-0.0893186554312706
-3.52646964589133,2.06650367659858,-1.33149017074443,4.43537128816645,0.357193380594254,-0.103030048310757,-0.0895233824849129
-3.52646964589133,2.06650367659858,-1.33149017074443,4.43537128816645,0.358040064573288,-0.103207014501095,-0.0897275730967522
-3.52646964589133,2.06650367659858,-1.33149017074443,4.43537128816645,0.358884811401367,-0.103383004665375,-0.0899312198162079
-3.52646964589133,2.06650367659858,-1.33149017074443,4.43537128816645,0.359727621078491,-0.103558018803596,-0.0901343300938606
-3.52646964589133,2.06650367659858,-1.33149017074443,4.43537128816645,0.36056849360466,-0.10373205691576,-0.0903369039297104
-3.52646964589133,2.06650367659858,-1.33149017074443,4.43537128816645,0.361407458782196,-0.103905126452446,-0.0905389413237572
-3.52646964589133,2.06650367659858,-1.33149017074443,4.43537128816645,0.362244486808777,-0.104077219963074,-0.090740442276001
-3.52646964589133,2.06650367659858,-1.33149017074443,4.43537128816645,0.363079577684402,-0.104248344898224,-0.0909414067864418
-3.52646964589133,2.06650367659858,-1.33149017074443,4.43537128816645,0.363912761211395,-0.104418493807316,-0.0911418348550797
-3.52646964589133,2.06650367659858,-1.33149017074443,4.43537128816645,0.364744037389755,-0.10458767414093,-0.0913417264819145
-3.52646964589133,2.06650367659858,-1.33149017074443,4.43537128816645,0.36557337641716,-0.104755885899067,-0.091541089117527
-3.52646964589133,2.06650367659858,-1.33149017074443,4.43537128816645,0.366400808095932,-0.104923129081726,-0.0917399153113365
-3.52646964589133,2.06650367659858,-1.33149017074443,4.43537128816645,0.367226332426071,-0.105089403688908,-0.0919382125139236
-3.52646964589133,2.06650367659858,-1.33149017074443,4.43537128816645,0.368049949407578,-0.105254717171192,-0.0921359807252884
-3.52646964589133,2.06650367659858,-1.33149017074443,4.43537128816645,0.368871659040451,-0.105419062077999,-0.0923332124948502
-3.52646964589133,2.06650367659858,-1.33149017074443,4.43537128816645,0.369691461324692,-0.105582445859909,-0.0925299152731895
-3.52646964589133,2.06650367659858,-1.33149017074443,4.43537128816645,0.370509386062622,-0.105744868516922,-0.0927260890603065
-3.52646964589133,2.06650367659858,-1.33149017074443,4.43537128816645,0.37132540345192,-0.105906322598457,-0.0929217338562012
-3.52646964589133,2.06650367659858,-1.33149017074443,4.43537128816645,0.372139513492584,-0.106066815555096,-0.0931168496608734
-3.52646964589133,2.06650367659858,-1.33149017074443,4.43537128816645,0.372951745986938,-0.106226354837418,-0.0933114364743233
-3.52646964589133,2.06650367659858,-1.33149017074443,4.43537128816645,0.373762100934982,-0.106384932994843,-0.0935055017471313
-3.52646964589133,2.06650367659858,-1.33149017074443,4.43537128816645,0.374570548534393,-0.10654255002737,-0.093699038028717
-3.52646964589133,2.06650367659858,-1.33149017074443,4.43537128816645,0.375377118587494,-0.106699213385582,-0.0938920453190804
-3.52646964589133,2.06650367659858,-1.33149017074443,4.43537128816645,0.376181811094284,-0.106854923069477,-0.0940845310688019
-3.52646964589133,2.06650367659858,-1.33149017074443,4.43537128816645,0.376984626054764,-0.107009671628475,-0.094276487827301
-3.52646964589133,2.06650367659858,-1.33149017074443,4.43537128816645,0.377785563468933,-0.107163466513157,-0.0944679230451584
-3.52646964589133,2.06650367659858,-1.33149017074443,4.43537128816645,0.378584623336792,-0.107316315174103,-0.094658836722374
-3.52646964589133,2.06650367659858,-1.33149017074443,4.43537128816645,0.37938180565834,-0.107468210160732,-0.0948492288589478
-3.52646964589133,2.06650367659858,-1.33149017074443,4.43537128816645,0.380177140235901,-0.107619151473045,-0.0950390994548798
-3.52646964589133,2.06650367659858,-1.33149017074443,4.43537128816645,0.380970597267151,-0.107769146561623,-0.09522844851017
-3.52646964589133,2.06650367659858,-1.33149017074443,4.43537128816645,0.381762206554413,-0.107918187975883,-0.0954172760248184
-3.52646964589133,2.06650367659858,-1.33149017074443,4.43537128816645,0.382551938295364,-0.108066283166409,-0.0956055819988251
-3.52646964589133,2.06650367659858,-1.33149017074443,4.43537128816645,0.383339822292328,-0.108213432133198,-0.0957933664321899
-3.52646964589133,2.06650367659858,-1.33149017074443,4.43537128816645,0.384125858545303,-0.108359634876251,-0.0959806367754936
-3.52646964589133,2.06650367659858,-1.33149017074443,4.43537128816645,0.384910017251968,-0.108504891395569,-0.0961673855781555
-3.52646964589133,2.06650367659858,-1.33149017074443,4.43537128816645,0.385692328214645,-0.108649201691151,-0.0963536202907562
-3.52646964589133,2.06650367659858,-1.33149017074443,4.43537128816645,0.386472791433334,-0.108792573213577,-0.0965393334627151
-3.52646964589133,2.06650367659858,-1.33149017074443,4.43537128816645,0.387251406908035,-0.108934998512268,-0.0967245325446129
-3.52646964589133,2.06650367659858,-1.33149017074443,4.43537128816645,0.388028204441071,-0.109076485037804,-0.0969092175364494
-3.52646964589133,2.06650367659858,-1.33149017074443,4.43537128816645,0.388803154230118,-0.109217032790184,-0.0970933884382248
-3.52646964589133,2.06650367659858,-1.33149017074443,4.43537128816645,0.389576256275177,-0.109356641769409,-0.097277045249939
-3.52646964589133,2.06650367659858,-1.33149017074443,4.43537128816645,0.390347540378571,-0.109495311975479,-0.0974601879715919
-3.52646964589133,2.06650367659858,-1.33149017074443,4.43537128816645,0.391116976737976,-0.109633043408394,-0.0976428166031837
-3.52646964589133,2.06650367659858,-1.33149017074443,4.43537128816645,0.391884595155716,-0.109769836068153,-0.0978249311447144
-3.52646964589133,2.06650367659858,-1.33149017074443,4.43537128816645,0.39265039563179,-0.109905697405338,-0.0980065390467644
-3.52646964589133,2.06650367659858,-1.33149017074443,4.43537128816645,0.393414348363876,-0.110040627419949,-0.0981876328587532
-3.52646964589133,2.06650367659858,-1.33149017074443,4.43537128816645,0.394176483154297,-0.110174618661404,-0.0983682200312614
-3.52646964589133,2.06650367659858,-1.33149017074443,4.43537128816645,0.394936800003052,-0.110307678580284,-0.0985482931137085
-3.52646964589133,2.06650367659858,-1.33149017074443,4.43537128816645,0.395695298910141,-0.11043980717659,-0.098727859556675
-3.52646964589133,2.06650367659858,-1.33149017074443,4.43537128816645,0.396451979875565,-0.110571004450321,-0.0989069193601608
-3.52646964589133,2.06650367659858,-1.33149017074443,4.43537128816645,0.397206872701645,-0.110701277852058,-0.0990854650735855
-3.52646964589133,2.06650367659858,-1.33149017074443,4.43537128816645,0.39795994758606,-0.110830619931221,-0.0992635041475296
-3.52646964589133,2.06650367659858,-1.33149017074443,4.43537128816645,0.398711204528809,-0.11095903813839,-0.0994410365819931
-3.52646964589133,2.06650367659858,-1.33149017074443,4.43537128816645,0.399460673332214,-0.111086525022984,-0.0996180698275566
-3.52646964589133,2.06650367659858,-1.33149017074443,4.43537128816645,0.400208324193954,-0.111213088035583,-0.0997945964336395
-3.52646964589133,2.06650367659858,-1.33149017074443,4.43537128816645,0.400954186916351,-0.111338727176189,-0.0999706164002419
-3.52646964589133,2.06650367659858,-1.33149017074443,4.43537128816645,0.401698261499405,-0.111463442444801,-0.100146129727364
-3.52646964589133,2.06650367659858,-1.33149017074443,4.43537128816645,0.402440547943115,-0.111587233841419,-0.100321143865585
-3.52646964589133,2.06650367659858,-1.33149017074443,4.43537128816645,0.40318101644516,-0.111710108816624,-0.100495651364326
-3.52646964589133,2.06650367659858,-1.33149017074443,4.43537128816645,0.403919696807861,-0.111832059919834,-0.100669659674168
-3.52646964589133,2.06650367659858,-1.33149017074443,4.43537128816645,0.404656618833542,-0.111953094601631,-0.100843168795109
-3.52646964589133,2.06650367659858,-1.33149017074443,4.43537128816645,0.405391752719879,-0.112073205411434,-0.101016171276569
-3.52646964589133,2.06650367659858,-1.33149017074443,4.43537128816645,0.406125098466873,-0.112192399799824,-0.10118867456913
-3.52646964589133,2.06650367659858,-1.33149017074443,4.43537128816645,0.406856656074524,-0.1123106777668,-0.101360678672791
-3.52646964589133,2.06650367659858,-1.33149017074443,4.43537128816645,0.407586455345154,-0.112428039312363,-0.101532183587551
-3.52646964589133,2.06650367659858,-1.33149017074443,4.43537128816645,0.40831446647644,-0.112544484436512,-0.101703189313412
-3.52646964589133,2.06650367659858,-1.33149017074443,4.43537128816645,0.409040719270706,-0.112660020589828,-0.101873703300953
-3.52646964589133,2.06650367659858,-1.33149017074443,4.43537128816645,0.409765183925629,-0.112774640321732,-0.102043718099594
-3.52646964589133,2.06650367659858,-1.33149017074443,4.43537128816645,0.41048789024353,-0.112888351082802,-0.102213233709335
-3.52646964589133,2.06650367659858,-1.33149017074443,4.43537128816645,0.411208838224411,-0.113001152873039,-0.102382257580757
-3.52646964589133,2.06650367659858,-1.33149017074443,4.43537128816645,0.411928027868271,-0.113113045692444,-0.102550782263279
-3.52646964589133,2.06650367659858,-1.33149017074443,4.43537128816645,0.41264545917511,-0.113224029541016,-0.102718815207481
-3.52646964589133,2.06650367659858,-1.33149017074443,4.43537128816645,0.413361132144928,-0.113334104418755,-0.102886348962784
-3.52646964589133,2.06650367659858,-1.33149017074443,4.43537128816645,0.414075046777725,-0.113443270325661,-0.103053390979767
-3.52646964589133,2.06650367659858,-1.33149017074443,4.43537128816645,0.414787232875824,-0.113551527261734,-0.10321994125843
-3.52646964589133,2.06650367659858,-1.33149017074443,4.43537128816645,0.415497660636902,-0.113658882677555,-0.103385999798775
-3.52646964589133,2.06650367659858,-1.33149017074443,4.43537128816645,0.416206330060959,-0.113765336573124,-0.1035515666008
-3.52646964589133,2.06650367659858,-1.33149017074443,4.43537128816645,0.416913270950317,-0.11387088149786,-0.103716641664505
-3.52646964589133,2.06650367659858,-1.33149017074443,4.43537128816645,0.417618453502655,-0.113975524902344,-0.103881224989891
-3.52646964589133,2.06650367659858,-1.33149017074443,4.43537128816645,0.418321907520294,-0.114079266786575,-0.104045324027538
-3.52646964589133,2.06650367659858,-1.33149017074443,4.43537128816645,0.419023633003235,-0.114182114601135,-0.104208931326866
-3.52646964589133,2.06650367659858,-1.33149017074443,4.43537128816645,0.419723629951477,-0.114284060895443,-0.104372054338455
-3.52646964589133,2.06650367659858,-1.33149017074443,4.43537128816645,0.420421898365021,-0.114385105669498,-0.104534685611725
-3.52646964589133,2.06650367659858,-1.33149017074443,4.43537128816645,0.421118438243866,-0.114485256373882,-0.104696832597256
-3.52646964589133,2.06650367659858,-1.33149017074443,4.43537128816645,0.421813249588013,-0.114584513008595,-0.104858487844467
-3.52646964589133,2.06650367659858,-1.33149017074443,4.43537128816645,0.422506332397461,-0.114682868123055,-0.10501965880394
-3.52646964589133,2.06650367659858,-1.33149017074443,4.43537128816645,0.423197686672211,-0.114780329167843,-0.105180345475674
-3.52646964589133,2.06650367659858,-1.33149017074443,4.43537128816645,0.423887342214584,-0.11487689614296,-0.105340547859669
-3.52646964589133,2.06650367659858,-1.33149017074443,4.43537128816645,0.42457526922226,-0.114972576498985,-0.105500265955925
-3.52646964589133,2.06650367659858,-1.33149017074443,4.43537128816645,0.425261497497559,-0.115067362785339,-0.105659499764442
-3.52646964589133,2.06650367659858,-1.33149017074443,4.43537128816645,0.425945997238159,-0.115161255002022,-0.105818249285221
-3.52646964589133,2.06650367659858,-1.33149017074443,4.43537128816645,0.426628798246384,-0.115254260599613,-0.105976521968842
-3.52646964589133,2.06650367659858,-1.33149017074443,4.43537128816645,0.427309900522232,-0.115346379578114,-0.106134310364723
-3.52646964589133,2.06650367659858,-1.33149017074443,4.43537128816645,0.427989304065704,-0.115437611937523,-0.106291621923447
-3.52646964589133,2.06650367659858,-1.33149017074443,4.43537128816645,0.428667008876801,-0.115527957677841,-0.106448449194431
-3.52646964589133,2.06650367659858,-1.33149017074443,4.43537128816645,0.429343014955521,-0.115617416799068,-0.106604799628258
-3.52646964589133,2.06650367659858,-1.33149017074443,4.43537128816645,0.430017322301865,-0.115705989301205,-0.106760665774345
-3.52646964589133,2.06650367659858,-1.33149017074443,4.43537128816645,0.430689930915833,-0.11579367518425,-0.106916055083275
-3.52646964589133,2.06650367659858,-1.33149017074443,4.43537128816645,0.431360840797424,-0.115880481898785,-0.107070967555046
-3.52646964589133,2.06650367659858,-1.33149017074443,4.43537128816645,0.43203005194664,-0.115966401994228,-0.107225403189659
-3.52646964589133,2.06650367659858,-1.33149017074443,4.43537128816645,0.432697594165802,-0.116051442921162,-0.107379361987114
-3.52646964589133,2.06650367659858,-1.33149017074443,4.43537128816645,0.433363437652588,-0.116135604679585,-0.107532843947411
-3.52646964589133,2.06650367659858,-1.33149017074443,4.43537128816645,0.43402761220932,-0.116218887269497,-0.107685849070549
-3.52646964589133,2.06650367659858,-1.33149017074443,4.43537128816645,0.434690117835999,-0.116301290690899,-0.10783838480711
-3.52646964589133,2.06650367659858,-1.33149017074443,4.43537128816645,0.435350954532623,-0.11638281494379,-0.107990443706512
-3.52646964589133,2.06650367659858,-1.33149017074443,4.43537128816645,0.436010092496872,-0.116463467478752,-0.108142025768757
-3.52646964589133,2.06650367659858,-1.33149017074443,4.43537128816645,0.436667561531067,-0.116543240845203,-0.108293138444424
-3.52646964589133,2.06650367659858,-1.33149017074443,4.43537128816645,0.437323361635208,-0.116622142493725,-0.108443781733513
-3.52646964589133,2.06650367659858,-1.33149017074443,4.43537128816645,0.437977492809296,-0.116700172424316,-0.108593948185444
-3.52646964589133,2.06650367659858,-1.33149017074443,4.43537128816645,0.438629984855652,-0.116777330636978,-0.108743645250797
-3.52646964589133,2.06650367659858,-1.33149017074443,4.43537128816645,0.439280807971954,-0.11685361713171,-0.108892872929573
-3.52646964589133,2.06650367659858,-1.33149017074443,4.43537128816645,0.439929962158203,-0.116929031908512,-0.109041631221771
-3.52646964589133,2.06650367659858,-1.33149017074443,4.43537128816645,0.440577477216721,-0.117003574967384,-0.109189920127392
-3.52646964589133,2.06650367659858,-1.33149017074443,4.43537128816645,0.441223323345184,-0.117077246308327,-0.109337739646435
-3.52646964589133,2.06650367659858,-1.33149017074443,4.43537128816645,0.441867530345917,-0.11715005338192,-0.1094850897789
-3.52646964589133,2.06650367659858,-1.33149017074443,4.43537128816645,0.442510068416595,-0.117221996188164,-0.109631970524788
-3.52646964589133,2.06650367659858,-1.33149017074443,4.43537128816645,0.443150967359543,-0.117293067276478,-0.109778389334679
-3.52646964589133,2.06650367659858,-1.33149017074443,4.43537128816645,0.443790227174759,-0.117363274097443,-0.109924338757992
-3.52646964589133,2.06650367659858,-1.33149017074443,4.43537128816645,0.444427847862244,-0.117432616651058,-0.110069826245308
-3.52646964589133,2.06650367659858,-1.33149017074443,4.43537128816645,0.445063829421997,-0.117501094937325,-0.110214844346046
-3.52646964589133,2.06650367659858,-1.33149017074443,4.43537128816645,0.445698171854019,-0.117568716406822,-0.110359400510788
-3.52646964589133,2.06650367659858,-1.33149017074443,4.43537128816645,0.44633087515831,-0.117635473608971,-0.110503494739532
-3.52646964589133,2.06650367659858,-1.33149017074443,4.43537128816645,0.446961969137192,-0.11770137399435,-0.110647119581699
-3.52646964589133,2.06650367659858,-1.33149017074443,4.43537128816645,0.447591423988342,-0.117766410112381,-0.110790282487869
-3.52646964589133,2.06650367659858,-1.33149017074443,4.43537128816645,0.448219239711761,-0.117830589413643,-0.110932983458042
-3.52646964589133,2.06650367659858,-1.33149017074443,4.43537128816645,0.448845446109772,-0.117893911898136,-0.111075222492218
-3.52646964589133,2.06650367659858,-1.33149017074443,4.43537128816645,0.449470013380051,-0.117956377565861,-0.111217007040977
-3.52646964589133,2.06650367659858,-1.33149017074443,4.43537128816645,0.450092971324921,-0.118017986416817,-0.11135832965374
-3.52646964589133,2.06650367659858,-1.33149017074443,4.43537128816645,0.450714319944382,-0.118078738451004,-0.111499190330505
-3.52646964589133,2.06650367659858,-1.33149017074443,4.43537128816645,0.451334059238434,-0.118138641119003,-0.111639596521854
-3.52646964589133,2.06650367659858,-1.33149017074443,4.43537128816645,0.451952189207077,-0.118197686970234,-0.111779540777206
-3.52646964589133,2.06650367659858,-1.33149017074443,4.43537128816645,0.452568709850311,-0.118255883455276,-0.111919030547142
-3.52646964589133,2.06650367659858,-1.33149017074443,4.43537128816645,0.453183621168137,-0.118313230574131,-0.112058058381081
-3.52646964589133,2.06650367659858,-1.33149017074443,4.43537128816645,0.453796923160553,-0.118369728326797,-0.112196631729603
-3.52646964589133,2.06650367659858,-1.33149017074443,4.43537128816645,0.45440861582756,-0.118425376713276,-0.112334750592709
-3.52646964589133,2.06650367659858,-1.33149017074443,4.43537128816645,0.455018699169159,-0.118480175733566,-0.112472414970398
-3.52646964589133,2.06650367659858,-1.33149017074443,4.43537128816645,0.455627202987671,-0.118534125387669,-0.112609624862671
-3.52646964589133,2.06650367659858,-1.33149017074443,4.43537128816645,0.456234097480774,-0.118587233126163,-0.112746380269527
-3.52646964589133,2.06650367659858,-1.33149017074443,4.43537128816645,0.45683941245079,-0.11863949149847,-0.112882681190968
-3.52646964589133,2.06650367659858,-1.33149017074443,4.43537128816645,0.457443118095398,-0.11869090795517,-0.113018527626991
-3.52646964589133,2.06650367659858,-1.33149017074443,4.43537128816645,0.458045244216919,-0.118741482496262,-0.113153919577599
-3.52646964589133,2.06650367659858,-1.33149017074443,4.43537128816645,0.458645790815353,-0.118791215121746,-0.113288857042789
-3.52646964589133,2.06650367659858,-1.33149017074443,4.43537128816645,0.459244757890701,-0.118840105831623,-0.113423347473145
-3.52646964589133,2.06650367659858,-1.33149017074443,4.43537128816645,0.459842145442963,-0.118888154625893,-0.113557383418083
-3.52646964589133,2.06650367659858,-1.33149017074443,4.43537128816645,0.460437953472137,-0.118935361504555,-0.113690972328186
-3.52646964589133,2.06650367659858,-1.33149017074443,4.43537128816645,0.461032181978226,-0.118981726467609,-0.113824114203453
-3.52646964589133,2.06650367659858,-1.33149017074443,4.43537128816645,0.461624830961227,-0.119027256965637,-0.113956801593304
-3.52646964589133,2.06650367659858,-1.33149017074443,4.43537128816645,0.462215900421143,-0.119071952998638,-0.114089041948318
-3.52646964589133,2.06650367659858,-1.33149017074443,4.43537128816645,0.462805420160294,-0.119115807116032,-0.114220835268497
-3.52646964589133,2.06650367659858,-1.33149017074443,4.43537128816645,0.463393360376358,-0.119158826768398,-0.114352181553841
-3.52646964589133,2.06650367659858,-1.33149017074443,4.43537128816645,0.463979750871658,-0.119201011955738,-0.114483080804348
-3.52646964589133,2.06650367659858,-1.33149017074443,4.43537128816645,0.464564561843872,-0.119242362678051,-0.11461353302002
-3.52646964589133,2.06650367659858,-1.33149017074443,4.43537128816645,0.465147823095322,-0.119282886385918,-0.114743545651436
-3.52646964589133,2.06650367659858,-1.33149017074443,4.43537128816645,0.465729534626007,-0.119322575628757,-0.114873111248016
-3.52646964589133,2.06650367659858,-1.33149017074443,4.43537128816645,0.466309696435928,-0.119361437857151,-0.115002229809761
-3.52646964589133,2.06650367659858,-1.33149017074443,4.43537128816645,0.466888308525085,-0.119399465620518,-0.115130908787251
-3.52646964589133,2.06650367659858,-1.33149017074443,4.43537128816645,0.467465370893478,-0.119436666369438,-0.115259140729904
-3.52646964589133,2.06650367659858,-1.33149017074443,4.43537128816645,0.468040883541107,-0.119473040103912,-0.115386933088303
-3.52646964589133,2.06650367659858,-1.33149017074443,4.43537128816645,0.468614846467972,-0.11950858682394,-0.115514285862446
-3.52646964589133,2.06650367659858,-1.33149017074443,4.43537128816645,0.469187259674072,-0.119543306529522,-0.115641199052334
-3.52646964589133,2.06650367659858,-1.33149017074443,4.43537128816645,0.469758123159409,-0.119577199220657,-0.115767665207386
-3.52646964589133,2.06650367659858,-1.33149017074443,4.43537128816645,0.470327466726303,-0.119610272347927,-0.115893691778183
-3.52646964589133,2.06650367659858,-1.33149017074443,4.43537128816645,0.470895260572433,-0.119642518460751,-0.116019278764725
-3.52646964589133,2.06650367659858,-1.33149017074443,4.43537128816645,0.471461534500122,-0.119673945009708,-0.116144426167011
-3.52646964589133,2.06650367659858,-1.33149017074443,4.43537128816645,0.472026258707047,-0.119704551994801,-0.116269141435623
-3.52646964589133,2.06650367659858,-1.33149017074443,4.43537128816645,0.472589462995529,-0.119734331965446,-0.11639341711998
-3.52646964589133,2.06650367659858,-1.33149017074443,4.43537128816645,0.47315114736557,-0.119763292372227,-0.116517253220081
-3.52646964589133,2.06650367659858,-1.33149017074443,4.43537128816645,0.473711311817169,-0.119791440665722,-0.116640657186508
-3.52646964589133,2.06650367659858,-1.33149017074443,4.43537128816645,0.474269956350327,-0.119818769395351,-0.11676362156868
-3.52646964589133,2.06650367659858,-1.33149017074443,4.43537128816645,0.474827080965042,-0.119845278561115,-0.116886153817177
-3.52646964589133,2.06650367659858,-1.33149017074443,4.43537128816645,0.475382685661316,-0.119870975613594,-0.117008246481419
-3.52646964589133,2.06650367659858,-1.33149017074443,4.43537128816645,0.475936770439148,-0.119895853102207,-0.117129907011986
-3.52646964589133,2.06650367659858,-1.33149017074443,4.43537128816645,0.476489335298538,-0.119919918477535,-0.117251135408878
-3.52646964589133,2.06650367659858,-1.33149017074443,4.43537128816645,0.477040410041809,-0.119943171739578,-0.117371931672096
-3.52646964589133,2.06650367659858,-1.33149017074443,4.43537128816645,0.477589964866638,-0.119965612888336,-0.11749229580164
-3.52646964589133,2.06650367659858,-1.33149017074443,4.43537128816645,0.478138029575348,-0.119987241923809,-0.117612227797508
-3.52646964589133,2.06650367659858,-1.33149017074443,4.43537128816645,0.478684574365616,-0.120008058845997,-0.117731727659702
-3.52646964589133,2.06650367659858,-1.33149017074443,4.43537128816645,0.479229629039764,-0.1200280636549,-0.117850795388222
-3.52646964589133,2.06650367659858,-1.33149017074443,4.43537128816645,0.479773193597794,-0.120047263801098,-0.117969430983067
-3.52646964589133,2.06650367659858,-1.33149017074443,4.43537128816645,0.480315238237381,-0.120065651834011,-0.118087641894817
-3.52646964589133,2.06650367659858,-1.33149017074443,4.43537128816645,0.480855792760849,-0.12008323520422,-0.118205420672894
-3.52646964589133,2.06650367659858,-1.33149017074443,4.43537128816645,0.481394857168198,-0.120100013911724,-0.118322774767876
-3.52646964589133,2.06650367659858,-1.33149017074443,4.43537128816645,0.481932431459427,-0.120115987956524,-0.118439696729183
-3.52646964589133,2.06650367659858,-1.33149017074443,4.43537128816645,0.482468545436859,-0.120131157338619,-0.118556194007397
-3.52646964589133,2.06650367659858,-1.33149017074443,4.43537128816645,0.483003169298172,-0.12014552205801,-0.118672266602516
-3.52646964589133,2.06650367659858,-1.33149017074443,4.43537128816645,0.483536303043365,-0.120159082114697,-0.118787907063961
-3.52646964589133,2.06650367659858,-1.33149017074443,4.43537128816645,0.48406794667244,-0.120171844959259,-0.118903122842312
-3.52646964589133,2.06650367659858,-1.33149017074443,4.43537128816645,0.484598129987717,-0.120183803141117,-0.119017913937569
-3.52646964589133,2.06650367659858,-1.33149017074443,4.43537128816645,0.485126823186874,-0.120194964110851,-0.119132280349731
-3.52646964589133,2.06650367659858,-1.33149017074443,4.43537128816645,0.485654056072235,-0.120205327868462,-0.1192462220788
-3.52646964589133,2.06650367659858,-1.33149017074443,4.43537128816645,0.486179828643799,-0.120214894413948,-0.119359746575356
-3.52646964589133,2.06650367659858,-1.33149017074443,4.43537128816645,0.486704111099243,-0.120223663747311,-0.119472846388817
-3.52646964589133,2.06650367659858,-1.33149017074443,4.43537128816645,0.487226933240891,-0.120231635868549,-0.119585521519184
-3.52646964589133,2.06650367659858,-1.33149017074443,4.43537128816645,0.487748295068741,-0.120238810777664,-0.119697779417038
-3.52646964589133,2.06650367659858,-1.33149017074443,4.43537128816645,0.488268196582794,-0.120245195925236,-0.119809612631798
-3.52646964589133,2.06650367659858,-1.33149017074443,4.43537128816645,0.488786637783051,-0.120250783860683,-0.119921028614044
-3.52646964589133,2.06650367659858,-1.33149017074443,4.43537128816645,0.48930361866951,-0.120255582034588,-0.120032027363777
-3.52646964589133,2.06650367659858,-1.33149017074443,4.43537128816645,0.489819169044495,-0.120259582996368,-0.120142601430416
-3.52646964589133,2.06650367659858,-1.33149017074443,4.43537128816645,0.490333259105682,-0.120262794196606,-0.120252758264542
-3.52646964589133,2.06650367659858,-1.33149017074443,4.43537128816645,0.490845888853073,-0.1202652156353,-0.120362497866154
-3.52646964589133,2.06650367659858,-1.33149017074443,4.43537128816645,0.491357088088989,-0.12026684731245,-0.120471820235252
-3.52646964589133,2.06650367659858,-1.33149017074443,4.43537128816645,0.491866827011108,-0.120267696678638,-0.120580725371838
-3.52646964589133,2.06650367659858,-1.33149017074443,4.43537128816645,0.492375135421753,-0.120267756283283,-0.120689213275909
-3.52646964589133,2.06650367659858,-1.33149017074443,4.43537128816645,0.492882013320923,-0.120267026126385,-0.120797283947468
-3.52646964589133,2.06650367659858,-1.33149017074443,4.43537128816645,0.493387430906296,-0.120265513658524,-0.120904944837093
-3.52646964589133,2.06650367659858,-1.33149017074443,4.43537128816645,0.493891417980194,-0.1202632188797,-0.121012188494205
-3.52646964589133,2.06650367659858,-1.33149017074443,4.43537128816645,0.494393974542618,-0.120260141789913,-0.121119014918804
-3.52646964589133,2.06650367659858,-1.33149017074443,4.43537128816645,0.494895100593567,-0.120256274938583,-0.12122543156147
-3.52646964589133,2.06650367659858,-1.33149017074443,4.43537128816645,0.495394796133041,-0.120251633226871,-0.121331430971622
-3.52646964589133,2.06650367659858,-1.33149017074443,4.43537128816645,0.495893061161041,-0.120246209204197,-0.121437020599842
-3.52646964589133,2.06650367659858,-1.33149017074443,4.43537128816645,0.496389925479889,-0.12024000287056,-0.121542200446129
-3.52646964589133,2.06650367659858,-1.33149017074443,4.43537128816645,0.496885359287262,-0.12023301422596,-0.121646970510483
-3.52646964589133,2.06650367659858,-1.33149017074443,4.43537128816645,0.49737936258316,-0.120225250720978,-0.121751330792904
-3.52646964589133,2.06650367659858,-1.33149017074443,4.43537128816645,0.497871965169907,-0.120216712355614,-0.121855281293392
-3.52646964589133,2.06650367659858,-1.33149017074443,4.43537128816645,0.498363137245178,-0.120207391679287,-0.121958822011948
-3.52646964589133,2.06650367659858,-1.33149017074443,4.43537128816645,0.498852908611298,-0.120197296142578,-0.12206195294857
-3.52646964589133,2.06650367659858,-1.33149017074443,4.43537128816645,0.499341279268265,-0.120186425745487,-0.12216467410326
-3.52646964589133,2.06650367659858,-1.33149017074443,4.43537128816645,0.499828219413757,-0.120174780488014,-0.122266985476017
-3.52646964589133,2.06650367659858,-1.33149017074443,4.43537128816645,0.500313758850098,-0.12016236782074,-0.122368887066841
-3.52646964589133,2.06650367659858,-1.33149017074443,4.43537128816645,0.500797927379608,-0.120149180293083,-0.122470386326313
-3.52646964589133,2.06650367659858,-1.33149017074443,4.43537128816645,0.501280665397644,-0.120135225355625,-0.122571475803852
-3.52646964589133,2.06650367659858,-1.33149017074443,4.43537128816645,0.50176203250885,-0.120120495557785,-0.122672162950039
-3.52646964589133,2.06650367659858,-1.33149017074443,4.43537128816645,0.502241969108582,-0.120104998350143,-0.122772447764874
-3.52646964589133,2.06650367659858,-1.33149017074443,4.43537128816645,0.502720534801483,-0.1200887337327,-0.122872322797775
-3.52646964589133,2.06650367659858,-1.33149017074443,4.43537128816645,0.50319766998291,-0.120071701705456,-0.122971795499325
-3.52646964589133,2.06650367659858,-1.33149017074443,4.43537128816645,0.503673434257507,-0.12005390226841,-0.123070865869522
-3.52646964589133,2.06650367659858,-1.33149017074443,4.43537128816645,0.504147827625275,-0.120035335421562,-0.123169533908367
-3.52646964589133,2.06650367659858,-1.33149017074443,4.43537128816645,0.504620850086212,-0.120016001164913,-0.12326779961586
-3.52646964589133,2.06650367659858,-1.33149017074443,4.43537128816645,0.505092442035675,-0.119995906949043,-0.123365662992001
-3.52646964589133,2.06650367659858,-1.33149017074443,4.43537128816645,0.505562663078308,-0.119975045323372,-0.123463124036789
-3.52646964589133,2.06650367659858,-1.33149017074443,4.43537128816645,0.506031513214111,-0.11995342373848,-0.123560182750225
-3.52646964589133,2.06650367659858,-1.33149017074443,4.43537128816645,0.506498992443085,-0.119931042194366,-0.12365684658289
-3.52646964589133,2.06650367659858,-1.33149017074443,4.43537128816645,0.506965100765228,-0.119907900691032,-0.123753108084202
-3.52646964589133,2.06650367659858,-1.33149017074443,4.43537128816645,0.507429838180542,-0.119883999228477,-0.123848974704742
-3.52646964589133,2.06650367659858,-1.33149017074443,4.43537128816645,0.507893204689026,-0.119859337806702,-0.123944438993931
-3.52646964589133,2.06650367659858,-1.33149017074443,4.43537128816645,0.50835520029068,-0.119833916425705,-0.124039508402348
-3.52646964589133,2.06650367659858,-1.33149017074443,4.43537128816645,0.508815824985504,-0.119807735085487,-0.124134175479412
-3.52646964589133,2.06650367659858,-1.33149017074443,4.43537128816645,0.509275078773499,-0.119780801236629,-0.124228447675705
-3.52646964589133,2.06650367659858,-1.33149017074443,4.43537128816645,0.509732961654663,-0.119753114879131,-0.124322324991226
-3.52646964589133,2.06650367659858,-1.33149017074443,4.43537128816645,0.510189533233643,-0.119724668562412,-0.124415807425976
-3.52646964589133,2.06650367659858,-1.33149017074443,4.43537128816645,0.510644733905792,-0.119695469737053,-0.124508894979954
-3.52646964589133,2.06650367659858,-1.33149017074443,4.43537128816645,0.511098563671112,-0.119665518403053,-0.12460158765316
-3.52646964589133,2.06650367659858,-1.33149017074443,4.43537128816645,0.511551082134247,-0.119634814560413,-0.124693885445595
-3.52646964589133,2.06650367659858,-1.33149017074443,4.43537128816645,0.512002229690552,-0.119603358209133,-0.124785788357258
-3.52646964589133,2.06650367659858,-1.33149017074443,4.43537128816645,0.512452006340027,-0.119571156799793,-0.12487730383873
-3.52646964589133,2.06650367659858,-1.33149017074443,4.43537128816645,0.512900471687317,-0.119538202881813,-0.12496842443943
-3.52646964589133,2.06650367659858,-1.33149017074443,4.43537128816645,0.513347566127777,-0.119504503905773,-0.12505915760994
-3.52646964589133,2.06650367659858,-1.33149017074443,4.43537128816645,0.513793349266052,-0.119470052421093,-0.125149488449097
-3.52646964589133,2.06650367659858,-1.33149017074443,4.43537128816645,0.514237761497498,-0.119434855878353,-0.125239431858063
-3.52646964589133,2.06650367659858,-1.33149017074443,4.43537128816645,0.514680862426758,-0.119398914277554,-0.125328987836838
-3.52646964589133,2.06650367659858,-1.33149017074443,4.43537128816645,0.515122652053833,-0.119362227618694,-0.125418156385422
-3.52646964589133,2.06650367659858,-1.33149017074443,4.43537128816645,0.515563070774078,-0.119324795901775,-0.125506937503815
-3.52646964589133,2.06650367659858,-1.33149017074443,4.43537128816645,0.516002178192139,-0.119286619126797,-0.125595331192017
-3.52646964589133,2.06650367659858,-1.33149017074443,4.43537128816645,0.516439974308014,-0.119247704744339,-0.125683337450027
-3.52646964589133,2.06650367659858,-1.33149017074443,4.43537128816645,0.516876399517059,-0.119208045303822,-0.125770956277847
-3.52646964589133,2.06650367659858,-1.33149017074443,4.43537128816645,0.51731151342392,-0.119167648255825,-0.125858187675476
-3.52646964589133,2.06650367659858,-1.33149017074443,4.43537128816645,0.517745316028595,-0.119126506149769,-0.125945031642914
-3.52646964589133,2.06650367659858,-1.33149017074443,4.43537128816645,0.518177807331085,-0.119084626436234,-0.126031488180161
-3.52646964589133,2.06650367659858,-1.33149017074443,4.43537128816645,0.51860898733139,-0.119042009115219,-0.126117557287216
-3.52646964589133,2.06650367659858,-1.33149017074443,4.43537128816645,0.519038856029511,-0.118998654186726,-0.126203238964081
-3.52646964589133,2.06650367659858,-1.33149017074443,4.43537128816645,0.519467413425446,-0.118954561650753,-0.126288548111916
-3.52646964589133,2.06650367659858,-1.33149017074443,4.43537128816645,0.519894659519196,-0.118909738957882,-0.126373469829559
-3.52646964589133,2.06650367659858,-1.33149017074443,4.43537128816645,0.520320594310761,-0.118864178657532,-0.126458004117012
-3.52646964589133,2.06650367659858,-1.33149017074443,4.43537128816645,0.52074521780014,-0.118817880749702,-0.126542165875435
-3.52646964589133,2.06650367659858,-1.33149017074443,4.43537128816645,0.521168529987335,-0.118770852684975,-0.126625940203667
-3.52646964589133,2.06650367659858,-1.33149017074443,4.43537128816645,0.521590530872345,-0.118723094463348,-0.126709327101707
-3.52646964589133,2.06650367659858,-1.33149017074443,4.43537128816645,0.522011280059814,-0.118674606084824,-0.126792341470718
-3.52646964589133,2.06650367659858,-1.33149017074443,4.43537128816645,0.522430717945099,-0.1186253875494,-0.126874968409538
-3.52646964589133,2.06650367659858,-1.33149017074443,4.43537128816645,0.522848844528198,-0.118575438857079,-0.126957222819328
-3.52646964589133,2.06650367659858,-1.33149017074443,4.43537128816645,0.523265719413757,-0.118524760007858,-0.127039089798927
-3.52646964589133,2.06650367659858,-1.33149017074443,4.43537128816645,0.523681282997131,-0.11847335100174,-0.127120584249496
-3.52646964589133,2.06650367659858,-1.33149017074443,4.43537128816645,0.52409553527832,-0.118421219289303,-0.127201706171036
-3.52646964589133,2.06650367659858,-1.33149017074443,4.43537128816645,0.524508535861969,-0.118368357419968,-0.127282440662384
-3.52646964589133,2.06650367659858,-1.33149017074443,4.43537128816645,0.524920225143433,-0.118314772844315,-0.127362802624702
-3.52646964589133,2.06650367659858,-1.33149017074443,4.43537128816645,0.525330662727356,-0.118260465562344,-0.127442792057991
-3.52646964589133,2.06650367659858,-1.33149017074443,4.43537128816645,0.525739789009094,-0.118205428123474,-0.127522394061089
-3.52646964589133,2.06650367659858,-1.33149017074443,4.43537128816645,0.526147663593292,-0.118149667978287,-0.127601623535156
-3.52646964589133,2.06650367659858,-1.33149017074443,4.43537128816645,0.52655428647995,-0.118093192577362,-0.127680480480194
-3.52646964589133,2.06650367659858,-1.33149017074443,4.43537128816645,0.526959598064423,-0.118035994470119,-0.127758964896202
-3.52646964589133,2.06650367659858,-1.33149017074443,4.43537128816645,0.527363657951355,-0.117978073656559,-0.12783707678318
-3.52646964589133,2.06650367659858,-1.33149017074443,4.43537128816645,0.527766466140747,-0.117919437587261,-0.127914816141129
-3.52646964589133,2.06650367659858,-1.33149017074443,4.43537128816645,0.528167963027954,-0.117860078811646,-0.127992182970047
-3.52646964589133,2.06650367659858,-1.33149017074443,4.43537128816645,0.528568208217621,-0.117800004780293,-0.128069177269936
-3.52646964589133,2.06650367659858,-1.33149017074443,4.43537128816645,0.528967201709747,-0.117739215493202,-0.128145799040794
-3.52646964589133,2.06650367659858,-1.33149017074443,4.43537128816645,0.529364943504334,-0.117677710950375,-0.128222048282623
-3.52646964589133,2.06650367659858,-1.33149017074443,4.43537128816645,0.529761433601379,-0.11761549115181,-0.128297924995422
-3.52646964589133,2.06650367659858,-1.33149017074443,4.43537128816645,0.530156672000885,-0.117552556097507,-0.128373429179192
-3.52646964589133,2.06650367659858,-1.33149017074443,4.43537128816645,0.53055065870285,-0.117488905787468,-0.128448575735092
-3.52646964589133,2.06650367659858,-1.33149017074443,4.43537128816645,0.530943393707275,-0.117424540221691,-0.128523349761963
-3.52646964589133,2.06650367659858,-1.33149017074443,4.43537128816645,0.53133487701416,-0.117359466850758,-0.128597751259804
-3.52646964589133,2.06650367659858,-1.33149017074443,4.43537128816645,0.531725108623505,-0.117293678224087,-0.128671780228615
-3.52646964589133,2.06650367659858,-1.33149017074443,4.43537128816645,0.532114088535309,-0.117227181792259,-0.128745451569557
-3.52646964589133,2.06650367659858,-1.33149017074443,4.43537128816645,0.532501816749573,-0.117159977555275,-0.12881875038147
-3.52646964589133,2.06650367659858,-1.33149017074443,4.43537128816645,0.532888293266296,-0.117092065513134,-0.128891691565514
-3.52646964589133,2.06650367659858,-1.33149017074443,4.43537128816645,0.533273577690125,-0.117023445665836,-0.128964260220528
-3.52646964589133,2.06650367659858,-1.33149017074443,4.43537128816645,0.533657610416412,-0.116954118013382,-0.129036471247673
-3.52646964589133,2.06650367659858,-1.33149017074443,4.43537128816645,0.53404039144516,-0.116884082555771,-0.129108309745789
-3.52646964589133,2.06650367659858,-1.33149017074443,4.43537128816645,0.534421980381012,-0.116813346743584,-0.129179790616035
-3.52646964589133,2.06650367659858,-1.33149017074443,4.43537128816645,0.534802317619324,-0.11674190312624,-0.129250898957253
-3.52646964589133,2.06650367659858,-1.33149017074443,4.43537128816645,0.535181403160095,-0.11666975915432,-0.129321649670601
-3.52646964589133,2.06650367659858,-1.33149017074443,4.43537128816645,0.535559296607971,-0.116596907377243,-0.129392042756081
-3.52646964589133,2.06650367659858,-1.33149017074443,4.43537128816645,0.535935938358307,-0.11652335524559,-0.129462063312531
-3.52646964589133,2.06650367659858,-1.33149017074443,4.43537128816645,0.536311388015747,-0.116449102759361,-0.129531726241112
-3.52646964589133,2.06650367659858,-1.33149017074443,4.43537128816645,0.536685645580292,-0.116374149918556,-0.129601031541824
-3.52646964589133,2.06650367659858,-1.33149017074443,4.43537128816645,0.537058651447296,-0.116298496723175,-0.129669979214668
-3.52646964589133,2.06650367659858,-1.33149017074443,4.43537128816645,0.537430465221405,-0.116222150623798,-0.129738569259644
-3.52646964589133,2.06650367659858,-1.33149017074443,4.43537128816645,0.537801027297974,-0.116145104169846,-0.129806786775589
-3.52646964589133,2.06650367659858,-1.33149017074443,4.43537128816645,0.538170397281647,-0.116067364811897,-0.129874646663666
-3.52646964589133,2.06650367659858,-1.33149017074443,4.43537128816645,0.538538575172424,-0.115988925099373,-0.129942148923874
-3.52646964589133,2.06650367659858,-1.33149017074443,4.43537128816645,0.538905560970306,-0.115909792482853,-0.130009293556213
-3.52646964589133,2.06650367659858,-1.33149017074443,4.43537128816645,0.539271354675293,-0.115829966962337,-0.130076080560684
-3.52646964589133,2.06650367659858,-1.33149017074443,4.43537128816645,0.539635896682739,-0.115749448537827,-0.130142509937286
-3.52646964589133,2.06650367659858,-1.33149017074443,4.43537128816645,0.53999924659729,-0.11566823720932,-0.13020858168602
-3.52646964589133,2.06650367659858,-1.33149017074443,4.43537128816645,0.540361404418945,-0.115586332976818,-0.130274310708046
-3.52646964589133,2.06650367659858,-1.33149017074443,4.43537128816645,0.540722370147705,-0.115503735840321,-0.130339682102203
-3.52646964589133,2.06650367659858,-1.33149017074443,4.43537128816645,0.541082143783569,-0.115420453250408,-0.130404695868492
-3.52646964589133,2.06650367659858,-1.33149017074443,4.43537128816645,0.541440725326538,-0.1153364777565,-0.130469352006912
-3.52646964589133,2.06650367659858,-1.33149017074443,4.43537128816645,0.541798114776611,-0.115251816809177,-0.130533665418625
-3.52646964589133,2.06650367659858,-1.33149017074443,4.43537128816645,0.542154312133789,-0.11516647040844,-0.130597621202469
-3.52646964589133,2.06650367659858,-1.33149017074443,4.43537128816645,0.542509317398071,-0.115080431103706,-0.130661219358444
-3.52646964589133,2.06650367659858,-1.33149017074443,4.43537128816645,0.542863190174103,-0.114993706345558,-0.130724474787712
-3.52646964589133,2.06650367659858,-1.33149017074443,4.43537128816645,0.543215870857239,-0.114906296133995,-0.130787372589111
-3.52646964589133,2.06650367659858,-1.33149017074443,4.43537128816645,0.543567359447479,-0.114818207919598,-0.130849912762642
-3.52646964589133,2.06650367659858,-1.33149017074443,4.43537128816645,0.543917655944824,-0.114729434251785,-0.130912110209465
-3.52646964589133,2.06650367659858,-1.33149017074443,4.43537128816645,0.544266819953918,-0.114639975130558,-0.130973950028419
-3.52646964589133,2.06650367659858,-1.33149017074443,4.43537128816645,0.544614791870117,-0.114549838006496,-0.131035447120667
-3.52646964589133,2.06650367659858,-1.33149017074443,4.43537128816645,0.54496157169342,-0.11445901542902,-0.131096601486206
-3.52646964589133,2.06650367659858,-1.33149017074443,4.43537128816645,0.545307219028473,-0.114367514848709,-0.131157398223877
-3.52646964589133,2.06650367659858,-1.33149017074443,4.43537128816645,0.54565167427063,-0.114275336265564,-0.13121785223484
-3.52646964589133,2.06650367659858,-1.33149017074443,4.43537128816645,0.545994997024536,-0.114182479679585,-0.131277963519096
-3.52646964589133,2.06650367659858,-1.33149017074443,4.43537128816645,0.546337127685547,-0.114088945090771,-0.131337717175484
-3.52646964589133,2.06650367659858,-1.33149017074443,4.43537128816645,0.546678125858307,-0.113994732499123,-0.131397128105164
-3.52646964589133,2.06650367659858,-1.33149017074443,4.43537128816645,0.547017931938171,-0.11389984190464,-0.131456196308136
-3.52646964589133,2.06650367659858,-1.33149017074443,4.43537128816645,0.547356605529785,-0.113804280757904,-0.131514921784401
-3.52646964589133,2.06650367659858,-1.33149017074443,4.43537128816645,0.547694146633148,-0.113708041608334,-0.131573304533958
-3.52646964589133,2.06650367659858,-1.33149017074443,4.43537128816645,0.548030495643616,-0.113611131906509,-0.131631329655647
-3.52646964589133,2.06650367659858,-1.33149017074443,4.43537128816645,0.548365712165833,-0.113513551652431,-0.131689012050629
-3.52646964589133,2.06650367659858,-1.33149017074443,4.43537128816645,0.548699796199799,-0.113415293395519,-0.131746351718903
-3.52646964589133,2.06650367659858,-1.33149017074443,4.43537128816645,0.549032747745514,-0.113316364586353,-0.131803348660469
-3.52646964589133,2.06650367659858,-1.33149017074443,4.43537128816645,0.549364566802979,-0.113216765224934,-0.131860002875328
-3.52646964589133,2.06650367659858,-1.33149017074443,4.43537128816645,0.549695193767548,-0.113116502761841,-0.13191631436348
-3.52646964589133,2.06650367659858,-1.33149017074443,4.43537128816645,0.550024688243866,-0.113015569746494,-0.131972298026085
-3.52646964589133,2.06650367659858,-1.33149017074443,4.43537128816645,0.550353050231934,-0.112913966178894,-0.132027938961983
-3.52646964589133,2.06650367659858,-1.33149017074443,4.43537128816645,0.55068027973175,-0.112811699509621,-0.132083237171173
-3.52646964589133,2.06650367659858,-1.33149017074443,4.43537128816645,0.551006376743317,-0.112708762288094,-0.132138192653656
-3.52646964589133,2.06650367659858,-1.33149017074443,4.43537128816645,0.551331341266632,-0.112605161964893,-0.132192805409431
-3.52646964589133,2.06650367659858,-1.33149017074443,4.43537128816645,0.551655173301697,-0.11250089854002,-0.132247090339661
-3.52646964589133,2.06650367659858,-1.33149017074443,4.43537128816645,0.551977932453156,-0.112395972013474,-0.132301032543182
-3.52646964589133,2.06650367659858,-1.33149017074443,4.43537128816645,0.552299559116364,-0.112290382385254,-0.132354632019997
-3.52646964589133,2.06650367659858,-1.33149017074443,4.43537128816645,0.552620053291321,-0.112184129655361,-0.132407903671265
-3.52646964589133,2.06650367659858,-1.33149017074443,4.43537128816645,0.552939414978027,-0.112077213823795,-0.132460832595825
-3.52646964589133,2.06650367659858,-1.33149017074443,4.43537128816645,0.553257644176483,-0.111969634890556,-0.132513433694839
-3.52646964589133,2.06650367659858,-1.33149017074443,4.43537128816645,0.553574800491333,-0.111861400306225,-0.132565692067146
-3.52646964589133,2.06650367659858,-1.33149017074443,4.43537128816645,0.553890824317932,-0.11175250262022,-0.132617622613907
-3.52646964589133,2.06650367659858,-1.33149017074443,4.43537128816645,0.554205715656281,-0.111642949283123,-0.13266921043396
-3.52646964589133,2.06650367659858,-1.33149017074443,4.43537128816645,0.554519534111023,-0.111532740294933,-0.132720470428467
-3.52646964589133,2.06650367659858,-1.33149017074443,4.43537128816645,0.554832220077515,-0.111421875655651,-0.132771387696266
-3.52646964589133,2.06650367659858,-1.33149017074443,4.43537128816645,0.5551438331604,-0.111310355365276,-0.132821977138519
-3.52646964589133,2.06650367659858,-1.33149017074443,4.43537128816645,0.555454313755035,-0.111198179423809,-0.132872238755226
-3.52646964589133,2.06650367659858,-1.33149017074443,4.43537128816645,0.555763721466064,-0.111085347831249,-0.132922157645226
-3.52646964589133,2.06650367659858,-1.33149017074443,4.43537128816645,0.556071996688843,-0.110971860587597,-0.132971748709679
-3.52646964589133,2.06650367659858,-1.33149017074443,4.43537128816645,0.556379199028015,-0.110857725143433,-0.133021011948586
-3.52646964589133,2.06650367659858,-1.33149017074443,4.43537128816645,0.556685268878937,-0.110742934048176,-0.133069947361946
-3.52646964589133,2.06650367659858,-1.33149017074443,4.43537128816645,0.556990265846252,-0.110627494752407,-0.13311855494976
-3.52646964589133,2.06650367659858,-1.33149017074443,4.43537128816645,0.557294189929962,-0.110511407256126,-0.133166834712029
-3.52646964589133,2.06650367659858,-1.33149017074443,4.43537128816645,0.557597041130066,-0.110394671559334,-0.133214771747589
-3.52646964589133,2.06650367659858,-1.33149017074443,4.43537128816645,0.557898759841919,-0.110277287662029,-0.133262380957603
-3.52646964589133,2.06650367659858,-1.33149017074443,4.43537128816645,0.558199405670166,-0.110159255564213,-0.133309662342072
-3.52646964589133,2.06650367659858,-1.33149017074443,4.43537128816645,0.558498978614807,-0.110040575265884,-0.133356615900993
-3.52646964589133,2.06650367659858,-1.33149017074443,4.43537128816645,0.558797478675842,-0.109921246767044,-0.133403241634369
-3.52646964589133,2.06650367659858,-1.33149017074443,4.43537128816645,0.559094905853271,-0.109801277518272,-0.133449554443359
-3.52646964589133,2.06650367659858,-1.33149017074443,4.43537128816645,0.559391260147095,-0.109680660068989,-0.133495539426804
-3.52646964589133,2.06650367659858,-1.33149017074443,4.43537128816645,0.559686541557312,-0.109559401869774,-0.133541196584702
-3.52646964589133,2.06650367659858,-1.33149017074443,4.43537128816645,0.559980750083923,-0.109437502920628,-0.133586525917053
-3.52646964589133,2.06650367659858,-1.33149017074443,4.43537128816645,0.560273885726929,-0.109314955770969,-0.133631527423859
-3.52646964589133,2.06650367659858,-1.33149017074443,4.43537128816645,0.560565948486328,-0.10919176787138,-0.133676216006279
-3.52646964589133,2.06650367659858,-1.33149017074443,4.43537128816645,0.560856938362122,-0.109067939221859,-0.133720576763153
-3.52646964589133,2.06650367659858,-1.33149017074443,4.43537128816645,0.561146855354309,-0.108943477272987,-0.133764609694481
-3.52646964589133,2.06650367659858,-1.33149017074443,4.43537128816645,0.561435699462891,-0.108818374574184,-0.133808329701424
-3.52646964589133,2.06650367659858,-1.33149017074443,4.43537128816645,0.561723530292511,-0.10869263112545,-0.13385172188282
-3.52646964589133,2.06650367659858,-1.33149017074443,4.43537128816645,0.562010288238525,-0.108566254377365,-0.13389478623867
-3.52646964589133,2.06650367659858,-1.33149017074443,4.43537128816645,0.562295973300934,-0.108439236879349,-0.133937537670135
-3.52646964589133,2.06650367659858,-1.33149017074443,4.43537128816645,0.562580585479736,-0.108311586081982,-0.133979961276054
-3.52646964589133,2.06650367659858,-1.33149017074443,4.43537128816645,0.562864184379578,-0.108183301985264,-0.134022071957588
-3.52646964589133,2.06650367659858,-1.33149017074443,4.43537128816645,0.563146710395813,-0.108054384589195,-0.134063854813576
-3.52646964589133,2.06650367659858,-1.33149017074443,4.43537128816645,0.563428223133087,-0.107924833893776,-0.134105324745178
-3.52646964589133,2.06650367659858,-1.33149017074443,4.43537128816645,0.563708662986755,-0.107794649899006,-0.134146481752396
-3.52646964589133,2.06650367659858,-1.33149017074443,4.43537128816645,0.563988029956818,-0.107663832604885,-0.134187310934067
-3.52646964589133,2.06650367659858,-1.33149017074443,4.43537128816645,0.564266383647919,-0.107532382011414,-0.134227827191353
-3.52646964589133,2.06650367659858,-1.33149017074443,4.43537128816645,0.564543724060059,-0.107400305569172,-0.134268030524254
-3.52646964589133,2.06650367659858,-1.33149017074443,4.43537128816645,0.564819991588593,-0.107267595827579,-0.13430792093277
-3.52646964589133,2.06650367659858,-1.33149017074443,4.43537128816645,0.565095245838165,-0.107134260237217,-0.134347483515739
-3.52646964589133,2.06650367659858,-1.33149017074443,4.43537128816645,0.565369427204132,-0.107000298798084,-0.134386733174324
-3.52646964589133,2.06650367659858,-1.33149017074443,4.43537128816645,0.565642595291138,-0.106865711510181,-0.134425669908524
-3.52646964589133,2.06650367659858,-1.33149017074443,4.43537128816645,0.565914750099182,-0.106730498373508,-0.134464293718338
-3.52646964589133,2.06650367659858,-1.33149017074443,4.43537128816645,0.566185891628265,-0.106594659388065,-0.134502604603767
-3.52646964589133,2.06650367659858,-1.33149017074443,4.43537128816645,0.566455960273743,-0.106458194553852,-0.134540602564812
-3.52646964589133,2.06650367659858,-1.33149017074443,4.43537128816645,0.566725015640259,-0.106321103870869,-0.134578287601471
-3.52646964589133,2.06650367659858,-1.33149017074443,4.43537128816645,0.566993057727814,-0.106183387339115,-0.134615659713745
-3.52646964589133,2.06650367659858,-1.33149017074443,4.43537128816645,0.567260086536407,-0.106045052409172,-0.134652718901634
-3.52646964589133,2.06650367659858,-1.33149017074443,4.43537128816645,0.56752610206604,-0.105906099081039,-0.134689465165138
-3.52646964589133,2.06650367659858,-1.33149017074443,4.43537128816645,0.567791104316711,-0.105766519904137,-0.134725898504257
-3.52646964589133,2.06650367659858,-1.33149017074443,4.43537128816645,0.568055093288422,-0.105626322329044,-0.134762018918991
-3.52646964589133,2.06650367659858,-1.33149017074443,4.43537128816645,0.568318068981171,-0.105485506355762,-0.13479782640934
-3.52646964589133,2.06650367659858,-1.33149017074443,4.43537128816645,0.568580031394959,-0.105344071984291,-0.134833335876465
-3.52646964589133,2.06650367659858,-1.33149017074443,4.43537128816645,0.568840980529785,-0.10520201921463,-0.134868532419205
-3.52646964589133,2.06650367659858,-1.33149017074443,4.43537128816645,0.569100916385651,-0.10505934804678,-0.13490341603756
-3.52646964589133,2.06650367659858,-1.33149017074443,4.43537128816645,0.569359838962555,-0.10491606593132,-0.13493800163269
-3.52646964589133,2.06650367659858,-1.33149017074443,4.43537128816645,0.569617748260498,-0.104772165417671,-0.134972274303436
-3.52646964589133,2.06650367659858,-1.33149017074443,4.43537128816645,0.569874703884125,-0.104627653956413,-0.135006234049797
-3.52646964589133,2.06650367659858,-1.33149017074443,4.43537128816645,0.57013064622879,-0.104482524096966,-0.135039895772934
-3.52646964589133,2.06650367659858,-1.33149017074443,4.43537128816645,0.570385575294495,-0.104336783289909,-0.135073244571686
-3.52646964589133,2.06650367659858,-1.33149017074443,4.43537128816645,0.570639491081238,-0.104190431535244,-0.135106295347214
-3.52646964589133,2.06650367659858,-1.33149017074443,4.43537128816645,0.570892453193665,-0.10404346883297,-0.135139033198357
-3.52646964589133,2.06650367659858,-1.33149017074443,4.43537128816645,0.57114440202713,-0.103895895183086,-0.135171473026276
-3.52646964589133,2.06650367659858,-1.33149017074443,4.43537128816645,0.571395397186279,-0.103747710585594,-0.13520359992981
-3.52646964589133,2.06650367659858,-1.33149017074443,4.43537128816645,0.571645379066467,-0.103598915040493,-0.13523542881012
-3.52646964589133,2.06650367659858,-1.33149017074443,4.43537128816645,0.571894407272339,-0.103449515998363,-0.135266959667206
-3.52646964589133,2.06650367659858,-1.33149017074443,4.43537128816645,0.572142422199249,-0.103299506008625,-0.135298177599907
-3.52646964589133,2.06650367659858,-1.33149017074443,4.43537128816645,0.572389483451843,-0.103148892521858,-0.135329097509384
-3.52646964589133,2.06650367659858,-1.33149017074443,4.43537128816645,0.572635531425476,-0.102997668087482,-0.135359719395638
-3.52646964589133,2.06650367659858,-1.33149017074443,4.43537128816645,0.572880625724792,-0.102845840156078,-0.135390043258667
-3.52646964589133,2.06650367659858,-1.33149017074443,4.43537128816645,0.573124706745148,-0.102693408727646,-0.135420054197311
-3.52646964589133,2.06650367659858,-1.33149017074443,4.43537128816645,0.573367834091187,-0.102540373802185,-0.135449767112732
-3.52646964589133,2.06650367659858,-1.33149017074443,4.43537128816645,0.573610007762909,-0.102386735379696,-0.135479182004929
-3.52646964589133,2.06650367659858,-1.33149017074443,4.43537128816645,0.573851227760315,-0.102232493460178,-0.135508298873901
-3.52646964589133,2.06650367659858,-1.33149017074443,4.43537128816645,0.57409143447876,-0.102077655494213,-0.13553711771965
-3.52646964589133,2.06650367659858,-1.33149017074443,4.43537128816645,0.574330687522888,-0.101922214031219,-0.135565638542175
-3.52646964589133,2.06650367659858,-1.33149017074443,4.43537128816645,0.5745689868927,-0.101766176521778,-0.135593861341476
-3.52646964589133,2.06650367659858,-1.33149017074443,4.43537128816645,0.574806332588196,-0.101609535515308,-0.135621786117554
-3.52646964589133,2.06650367659858,-1.33149017074443,4.43537128816645,0.575042724609375,-0.101452298462391,-0.135649412870407
-3.52646964589133,2.06650367659858,-1.33149017074443,4.43537128816645,0.575278162956238,-0.101294465363026,-0.135676741600037
-3.52646964589133,2.06650367659858,-1.33149017074443,4.43537128816645,0.575512647628784,-0.101136036217213,-0.135703772306442
-3.52646964589133,2.06650367659858,-1.33149017074443,4.43537128816645,0.575746178627014,-0.100977011024952,-0.135730504989624
-3.52646964589133,2.06650367659858,-1.33149017074443,4.43537128816645,0.575978755950928,-0.100817389786243,-0.135756954550743
-3.52646964589133,2.06650367659858,-1.33149017074443,4.43537128816645,0.576210379600525,-0.100657172501087,-0.135783106088638
-3.52646964589133,2.06650367659858,-1.33149017074443,4.43537128816645,0.576441049575806,-0.100496366620064,-0.13580895960331
-3.52646964589133,2.06650367659858,-1.33149017074443,4.43537128816645,0.57667076587677,-0.100334964692593,-0.135834515094757
-3.52646964589133,2.06650367659858,-1.33149017074443,4.43537128816645,0.576899528503418,-0.100172974169254,-0.135859787464142
-3.52646964589133,2.06650367659858,-1.33149017074443,4.43537128816645,0.577121555805206,-0.100016929209232,-0.135822996497154
-3.52646964589133,2.06650367659858,-1.33149017074443,4.43537128816645,0.577331006526947,-0.0998733714222908,-0.135662391781807
-3.52646964589133,2.06650367659858,-1.33149017074443,4.43537128816645,0.577545344829559,-0.0997408479452133,-0.135416477918625
-3.52646964589133,2.06650367659858,-1.33149017074443,4.43537128816645,0.577781975269318,-0.0996179133653641,-0.135123774409294
-3.52646964589133,2.06650367659858,-1.33149017074443,4.43537128816645,0.578040957450867,-0.0995045602321625,-0.134784266352654
-3.52646964589133,2.06650367659858,-1.33149017074443,4.43537128816645,0.578322231769562,-0.0994007959961891,-0.134397968649864
-3.52646964589133,2.06650367659858,-1.33149017074443,4.43537128816645,0.578625857830048,-0.0993066132068634,-0.133964881300926
-3.52646964589133,2.06650367659858,-1.33149017074443,4.43537128816645,0.578914701938629,-0.0992212891578674,-0.133500263094902
-3.52646964589133,2.06650367659858,-1.33149017074443,4.43537128816645,0.579151809215546,-0.0991441011428833,-0.133019372820854
-3.52646964589133,2.06650367659858,-1.33149017074443,4.43537128816645,0.579337120056152,-0.099075049161911,-0.132522195577621
-3.52646964589133,2.06650367659858,-1.33149017074443,4.43537128816645,0.579470634460449,-0.0990141332149506,-0.132008746266365
-3.52646964589133,2.06650367659858,-1.33149017074443,4.43537128816645,0.579552352428436,-0.098961353302002,-0.131479024887085
-3.52646964589133,2.06650367659858,-1.33149017074443,4.43537128816645,0.579598307609558,-0.0988905504345894,-0.130953386425972
-3.52646964589133,2.06650367659858,-1.33149017074443,4.43537128816645,0.57962441444397,-0.0987755730748177,-0.130452156066895
-3.52646964589133,2.06650367659858,-1.33149017074443,4.43537128816645,0.579630732536316,-0.0986164137721062,-0.129975348711014
-3.52646964589133,2.06650367659858,-1.33149017074443,4.43537128816645,0.579617261886597,-0.0984130799770355,-0.12952296435833
-3.52646964589133,2.06650367659858,-1.33149017074443,4.43537128816645,0.579583942890167,-0.0981655716896057,-0.129095003008842
-3.52646964589133,2.06650367659858,-1.33149017074443,4.43537128816645,0.579506874084473,-0.097899317741394,-0.128692910075188
-3.52646964589133,2.06650367659858,-1.33149017074443,4.43537128816645,0.579362034797668,-0.0976397544145584,-0.128318145871162
-3.52646964589133,2.06650367659858,-1.33149017074443,4.43537128816645,0.579149425029755,-0.0973868817090988,-0.127970710396767
-3.52646964589133,2.06650367659858,-1.33149017074443,4.43537128816645,0.578869104385376,-0.0971406996250153,-0.127650603652
-3.52646964589133,2.06650367659858,-1.33149017074443,4.43537128816645,0.578526854515076,-0.0968946665525436,-0.127419590950012
-3.52646964589133,2.06650367659858,-1.33149017074443,4.43537128816645,0.578158259391785,-0.096648782491684,-0.127330705523491
-3.52646964589133,2.06650367659858,-1.33149017074443,4.43537128816645,0.577775657176971,-0.0964110493659973,-0.127336725592613
-3.52646964589133,2.06650367659858,-1.33149017074443,4.43537128816645,0.577361643314362,-0.0961829125881195,-0.127399146556854
-3.52646964589133,2.06650367659858,-1.33149017074443,4.43537128816645,0.576916217803955,-0.0959643796086311,-0.127517953515053
-3.52646964589133,2.06650367659858,-1.33149017074443,4.43537128816645,0.576439380645752,-0.0957554429769516,-0.12769316136837
-3.52646964589133,2.06650367659858,-1.33149017074443,4.43537128816645,0.57591301202774,-0.0955742746591568,-0.127921864390373
-3.52646964589133,2.06650367659858,-1.33149017074443,4.43537128816645,0.57535594701767,-0.0954397693276405,-0.128185883164406
-3.52646964589133,2.06650367659858,-1.33149017074443,4.43537128816645,0.57480525970459,-0.0953526496887207,-0.128469973802567
-3.52646964589133,2.06650367659858,-1.33149017074443,4.43537128816645,0.574260950088501,-0.0953129157423973,-0.128774121403694
-3.52646964589133,2.06650367659858,-1.33149017074443,4.43537128816645,0.573723018169403,-0.0953205749392509,-0.12909834086895
-3.52646964589133,2.06650367659858,-1.33149017074443,4.43537128816645,0.573171138763428,-0.095353826880455,-0.129446268081665
-3.52646964589133,2.06650367659858,-1.33149017074443,4.43537128816645,0.572568953037262,-0.0954170301556587,-0.12980118393898
-3.52646964589133,2.06650367659858,-1.33149017074443,4.43537128816645,0.571900486946106,-0.0955363437533379,-0.130142733454704
-3.52646964589133,2.06650367659858,-1.33149017074443,4.43537128816645,0.57116574048996,-0.0957117676734924,-0.130470931529999
-3.52646964589133,2.06650367659858,-1.33149017074443,4.43537128816645,0.570364773273468,-0.0959433019161224,-0.130785778164864
-3.52646964589133,2.06650367659858,-1.33149017074443,4.43537128816645,0.569517850875854,-0.0962403938174248,-0.131088718771935
-3.52646964589133,2.06650367659858,-1.33149017074443,4.43537128816645,0.568669319152832,-0.096587061882019,-0.131379768252373
-3.52646964589133,2.06650367659858,-1.33149017074443,4.43537128816645,0.567843198776245,-0.0969578772783279,-0.13165745139122
-3.52646964589133,2.06650367659858,-1.33149017074443,4.43537128816645,0.567039430141449,-0.0973528325557709,-0.131921783089638
-3.52646964589133,2.06650367659858,-1.33149017074443,4.43537128816645,0.566258072853088,-0.0977719351649284,-0.132172763347626
-3.52646964589133,2.06650367659858,-1.33149017074443,4.43537128816645,0.565478026866913,-0.0981991961598396,-0.132439464330673
-3.52646964589133,2.06650367659858,-1.33149017074443,4.43537128816645,0.564648449420929,-0.09861209243536,-0.132759660482407
-3.52646964589133,2.06650367659858,-1.33149017074443,4.43537128816645,0.563739538192749,-0.0990040823817253,-0.133142068982124
-3.52646964589133,2.06650367659858,-1.33149017074443,4.43537128816645,0.562751293182373,-0.0993751734495163,-0.133586689829826
-3.52646964589133,2.06650367659858,-1.33149017074443,4.43537128816645,0.561683714389801,-0.0997253656387329,-0.134093537926674
-3.52646964589133,2.06650367659858,-1.33149017074443,4.43537128816645,0.560557901859283,-0.100091710686684,-0.134619727730751
-3.52646964589133,2.06650367659858,-1.33149017074443,4.43537128816645,0.559413075447083,-0.100493103265762,-0.135125309228897
-3.52646964589133,2.06650367659858,-1.33149017074443,4.43537128816645,0.55826735496521,-0.100911378860474,-0.135613173246384
-3.52646964589133,2.06650367659858,-1.33149017074443,4.43537128816645,0.557120800018311,-0.101346544921398,-0.136083334684372
-3.52646964589133,2.06650367659858,-1.33149017074443,4.43537128816645,0.555973410606384,-0.101798593997955,-0.136535793542862
-3.52646964589133,2.06650367659858,-1.33149017074443,4.43537128816645,0.554822981357574,-0.102231197059155,-0.136983618140221
-3.52646964589133,2.06650367659858,-1.33149017074443,4.43537128816645,0.553687691688538,-0.102629825472832,-0.137436255812645
-3.52646964589133,2.06650367659858,-1.33149017074443,4.43537128816645,0.552587926387787,-0.103016279637814,-0.137890085577965
-3.52646964589133,2.06650367659858,-1.33149017074443,4.43537128816645,0.551523625850677,-0.1033905595541,-0.13834510743618
-3.52646964589133,2.06650367659858,-1.33149017074443,4.43537128816645,0.550494849681854,-0.103752657771111,-0.13880130648613
-3.52646964589133,2.06650367659858,-1.33149017074443,4.43537128816645,0.549511730670929,-0.104103311896324,-0.139209285378456
-3.52646964589133,2.06650367659858,-1.33149017074443,4.43537128816645,0.54856413602829,-0.104433797299862,-0.139518171548843
-3.52646964589133,2.06650367659858,-1.33149017074443,4.43537128816645,0.547631680965424,-0.104734674096107,-0.139726519584656
-3.52646964589133,2.06650367659858,-1.33149017074443,4.43537128816645,0.54671436548233,-0.105005942285061,-0.139834329485893
-3.52646964589133,2.06650367659858,-1.33149017074443,4.43537128816645,0.54581218957901,-0.105247594416142,-0.139841601252556
-3.52646964589133,2.06650367659858,-1.33149017074443,4.43537128816645,0.544901192188263,-0.105490155518055,-0.139815911650658
-3.52646964589133,2.06650367659858,-1.33149017074443,4.43537128816645,0.54397851228714,-0.105780132114887,-0.139795780181885
-3.52646964589133,2.06650367659858,-1.33149017074443,4.43537128816645,0.543065190315247,-0.106133505702019,-0.139752134680748
-3.52646964589133,2.06650367659858,-1.33149017074443,4.43537128816645,0.542161226272583,-0.10655028373003,-0.139684975147247
-3.52646964589133,2.06650367659858,-1.33149017074443,4.43537128816645,0.541266620159149,-0.107030458748341,-0.139594301581383
-3.52646964589133,2.06650367659858,-1.33149017074443,4.43537128816645,0.540364623069763,-0.10752971470356,-0.139440879225731
-3.52646964589133,2.06650367659858,-1.33149017074443,4.43537128816645,0.539417505264282,-0.107966661453247,-0.139228329062462
-3.52646964589133,2.06650367659858,-1.33149017074443,4.43537128816645,0.538404166698456,-0.108304254710674,-0.138999536633492
-3.52646964589133,2.06650367659858,-1.33149017074443,4.43537128816645,0.537324607372284,-0.108542487025261,-0.13875450193882
-3.52646964589133,2.06650367659858,-1.33149017074443,4.43537128816645,0.536178886890411,-0.108681358397007,-0.138493210077286
-3.52646964589133,2.06650367659858,-1.33149017074443,4.43537128816645,0.534958958625793,-0.108747027814388,-0.138195335865021
-3.52646964589133,2.06650367659858,-1.33149017074443,4.43537128816645,0.533659040927887,-0.108801990747452,-0.137827441096306
-3.52646964589133,2.06650367659858,-1.33149017074443,4.43537128816645,0.532281279563904,-0.108882576227188,-0.137376457452774
-3.52646964589133,2.06650367659858,-1.33149017074443,4.43537128816645,0.530825674533844,-0.108988784253597,-0.136842384934425
-3.52646964589133,2.06650367659858,-1.33149017074443,4.43537128816645,0.529292285442352,-0.109120614826679,-0.13622522354126
-3.52646964589133,2.06650367659858,-1.33149017074443,4.43537128816645,0.527701377868652,-0.109224304556847,-0.135559841990471
-3.52646964589133,2.06650367659858,-1.33149017074443,4.43537128816645,0.526063203811646,-0.109245352447033,-0.134930536150932
-3.52646964589133,2.06650367659858,-1.33149017074443,4.43537128816645,0.524367570877075,-0.10918302834034,-0.134386718273163
-3.52646964589133,2.06650367659858,-1.33149017074443,4.43537128816645,0.522614419460297,-0.109037339687347,-0.133928373456001
-3.52646964589133,2.06650367659858,-1.33149017074443,4.43537128816645,0.520803809165955,-0.108808286488056,-0.133555516600609
-3.52646964589133,2.06650367659858,-1.33149017074443,4.43537128816645,0.51894736289978,-0.108544550836086,-0.133248537778854
-3.52646964589133,2.06650367659858,-1.33149017074443,4.43537128816645,0.517080664634705,-0.108264297246933,-0.13292022049427
-3.52646964589133,2.06650367659858,-1.33149017074443,4.43537128816645,0.515227735042572,-0.107937015593052,-0.132503002882004
-3.52646964589133,2.06650367659858,-1.33149017074443,4.43537128816645,0.513388574123383,-0.107562698423862,-0.131996884942055
-3.52646964589133,2.06650367659858,-1.33149017074443,4.43537128816645,0.511563181877136,-0.107141353189945,-0.131401866674423
-3.52646964589133,2.06650367659858,-1.33149017074443,4.43537128816645,0.509752988815308,-0.106654085218906,-0.130732476711273
-3.52646964589133,2.06650367659858,-1.33149017074443,4.43537128816645,0.507976174354553,-0.106126323342323,-0.130042493343353
-3.52646964589133,2.06650367659858,-1.33149017074443,4.43537128816645,0.50624942779541,-0.105602398514748,-0.129371151328087
-3.52646964589133,2.06650367659858,-1.33149017074443,4.43537128816645,0.504572749137878,-0.105082310736179,-0.128718450665474
-3.52646964589133,2.06650367659858,-1.33149017074443,4.43537128816645,0.502946197986603,-0.104566060006619,-0.128084391355515
-3.52646964589133,2.06650367659858,-1.33149017074443,4.43537128816645,0.501395165920258,-0.10403911024332,-0.12746025621891
-3.52646964589133,2.06650367659858,-1.33149017074443,4.43537128816645,0.499953061342239,-0.103460773825645,-0.126857668161392
-3.52646964589133,2.06650367659858,-1.33149017074443,4.43537128816645,0.498627901077271,-0.102804891765118,-0.12629696726799
-3.52646964589133,2.06650367659858,-1.33149017074443,4.43537128816645,0.497419685125351,-0.102071471512318,-0.125778168439865
-3.52646964589133,2.06650367659858,-1.33149017074443,4.43537128816645,0.496328413486481,-0.101260505616665,-0.125301256775856
-3.52646964589133,2.06650367659858,-1.33149017074443,4.43537128816645,0.495359182357788,-0.100409783422947,-0.124856799840927
-3.52646964589133,2.06650367659858,-1.33149017074443,4.43537128816645,0.494496732950211,-0.0996108576655388,-0.124400474131107
-3.52646964589133,2.06650367659858,-1.33149017074443,4.43537128816645,0.49372074007988,-0.0989175066351891,-0.123897396028042
-3.52646964589133,2.06650367659858,-1.33149017074443,4.43537128816645,0.493031173944473,-0.0983297228813171,-0.123347565531731
-3.52646964589133,2.06650367659858,-1.33149017074443,4.43537128816645,0.492428034543991,-0.097847506403923,-0.122750982642174
-3.52646964589133,2.06650367659858,-1.33149017074443,4.43537128816645,0.491911351680756,-0.0974912047386169,-0.122122183442116
-3.52646964589133,2.06650367659858,-1.33149017074443,4.43537128816645,0.491469472646713,-0.0972324833273888,-0.121495321393013
-3.52646964589133,2.06650367659858,-1.33149017074443,4.43537128816645,0.491090804338455,-0.0970226600766182,-0.120890006422997
-3.52646964589133,2.06650367659858,-1.33149017074443,4.43537128816645,0.490775316953659,-0.0968617349863052,-0.120306245982647
-3.52646964589133,2.06650367659858,-1.33149017074443,4.43537128816645,0.490523040294647,-0.0967497006058693,-0.119744040071964
-3.52646964589133,2.06650367659858,-1.33149017074443,4.43537128816645,0.490336865186691,-0.0966611355543137,-0.119229547679424
-3.52646964589133,2.06650367659858,-1.33149017074443,4.43537128816645,0.490218251943588,-0.0965894982218742,-0.118774399161339
-3.52646964589133,2.06650367659858,-1.33149017074443,4.43537128816645,0.490165740251541,-0.0965536832809448,-0.118364058434963
-3.52646964589133,2.06650367659858,-1.33149017074443,4.43537128816645,0.49017933011055,-0.0965536832809448,-0.117998525500298
-3.52646964589133,2.06650367659858,-1.33149017074443,4.43537128816645,0.490259051322937,-0.0965895056724548,-0.117677800357342
-3.52646964589133,2.06650367659858,-1.33149017074443,4.43537128816645,0.490417957305908,-0.096651703119278,-0.117345929145813
-3.52646964589133,2.06650367659858,-1.33149017074443,4.43537128816645,0.490643709897995,-0.0967453643679619,-0.116955690085888
-3.52646964589133,2.06650367659858,-1.33149017074443,4.43537128816645,0.490910857915878,-0.0968850255012512,-0.116515800356865
-3.52646964589133,2.06650367659858,-1.33149017074443,4.43537128816645,0.49121943116188,-0.0970706790685654,-0.116026259958744
-3.52646964589133,2.06650367659858,-1.33149017074443,4.43537128816645,0.491569429636002,-0.0973023325204849,-0.115487068891525
-3.52646964589133,2.06650367659858,-1.33149017074443,4.43537128816645,0.491968810558319,-0.0976126864552498,-0.114937461912632
-3.52646964589133,2.06650367659858,-1.33149017074443,4.43537128816645,0.492420524358749,-0.0979966446757317,-0.114426128566265
-3.52646964589133,2.06650367659858,-1.33149017074443,4.43537128816645,0.492919474840164,-0.0984164327383041,-0.113962516188622
-3.52646964589133,2.06650367659858,-1.33149017074443,4.43537128816645,0.493465662002563,-0.0988720506429672,-0.113546617329121
-3.52646964589133,2.06650367659858,-1.33149017074443,4.43537128816645,0.494059085845947,-0.0993634983897209,-0.113178439438343
-3.52646964589133,2.06650367659858,-1.33149017074443,4.43537128816645,0.494688838720322,-0.0998457223176956,-0.112866699695587
-3.52646964589133,2.06650367659858,-1.33149017074443,4.43537128816645,0.495344042778015,-0.100253328680992,-0.112605586647987
-3.52646964589133,2.06650367659858,-1.33149017074443,4.43537128816645,0.496024698019028,-0.100565977394581,-0.11238057166338
-3.52646964589133,2.06650367659858,-1.33149017074443,4.43537128816645,0.496730804443359,-0.100783661007881,-0.112191647291183
-3.52646964589133,2.06650367659858,-1.33149017074443,4.43537128816645,0.497462332248688,-0.100906386971474,-0.112038820981979
-3.52646964589133,2.06650367659858,-1.33149017074443,4.43537128816645,0.498215675354004,-0.100987195968628,-0.111923538148403
-3.52646964589133,2.06650367659858,-1.33149017074443,4.43537128816645,0.498984307050705,-0.101104564964771,-0.111821100115776
-3.52646964589133,2.06650367659858,-1.33149017074443,4.43537128816645,0.499765306711197,-0.101283930242062,-0.111705347895622
-3.52646964589133,2.06650367659858,-1.33149017074443,4.43537128816645,0.50055867433548,-0.101525284349918,-0.111576288938522
-3.52646964589133,2.06650367659858,-1.33149017074443,4.43537128816645,0.501364409923553,-0.101828634738922,-0.111433915793896
-3.52646964589133,2.06650367659858,-1.33149017074443,4.43537128816645,0.502191245555878,-0.10220342874527,-0.111286222934723
-3.52646964589133,2.06650367659858,-1.33149017074443,4.43537128816645,0.503034830093384,-0.102668553590775,-0.111197151243687
-3.52646964589133,2.06650367659858,-1.33149017074443,4.43537128816645,0.503882110118866,-0.103233456611633,-0.11122265458107
-3.52646964589133,2.06650367659858,-1.33149017074443,4.43537128816645,0.504733026027679,-0.103898145258427,-0.111362732946873
-3.52646964589133,2.06650367659858,-1.33149017074443,4.43537128816645,0.505587637424469,-0.104662612080574,-0.111617386341095
-3.52646964589133,2.06650367659858,-1.33149017074443,4.43537128816645,0.50638484954834,-0.105489075183868,-0.111965537071228
-3.52646964589133,2.06650367659858,-1.33149017074443,4.43537128816645,0.507055699825287,-0.106307059526443,-0.112346887588501
-3.52646964589133,2.06650367659858,-1.33149017074443,4.43537128816645,0.507592141628265,-0.107083857059479,-0.11272219568491
-3.52646964589133,2.06650367659858,-1.33149017074443,4.43537128816645,0.507994174957275,-0.107819475233555,-0.113091453909874
-3.52646964589133,2.06650367659858,-1.33149017074443,4.43537128816645,0.508261859416962,-0.108513914048672,-0.113454677164555
-3.52646964589133,2.06650367659858,-1.33149017074443,4.43537128816645,0.508419871330261,-0.109176620841026,-0.113832928240299
-3.52646964589133,2.06650367659858,-1.33149017074443,4.43537128816645,0.508503794670105,-0.109862096607685,-0.114238560199738
-3.52646964589133,2.06650367659858,-1.33149017074443,4.43537128816645,0.508524537086487,-0.110615387558937,-0.114662855863571
-3.52646964589133,2.06650367659858,-1.33149017074443,4.43537128816645,0.508482158184052,-0.111436493694782,-0.1151058152318
-3.52646964589133,2.06650367659858,-1.33149017074443,4.43537128816645,0.508376598358154,-0.112325415015221,-0.115567438304424
-3.52646964589133,2.06650367659858,-1.33149017074443,4.43537128816645,0.508210778236389,-0.113273434340954,-0.116051360964775
-3.52646964589133,2.06650367659858,-1.33149017074443,4.43537128816645,0.507991254329681,-0.114218793809414,-0.116559766232967
-3.52646964589133,2.06650367659858,-1.33149017074443,4.43537128816645,0.507721602916718,-0.115108445286751,-0.117091193795204
-3.52646964589133,2.06650367659858,-1.33149017074443,4.43537128816645,0.507401883602142,-0.115942388772964,-0.117645651102066
-3.52646964589133,2.06650367659858,-1.33149017074443,4.43537128816645,0.507032096385956,-0.116720631718636,-0.118223130702972
-3.52646964589133,2.06650367659858,-1.33149017074443,4.43537128816645,0.506603538990021,-0.117454066872597,-0.118856340646744
-3.52646964589133,2.06650367659858,-1.33149017074443,4.43537128816645,0.506098747253418,-0.118144154548645,-0.119569979608059
-3.52646964589133,2.06650367659858,-1.33149017074443,4.43537128816645,0.505508959293365,-0.118781447410583,-0.120356053113937
-3.52646964589133,2.06650367659858,-1.33149017074443,4.43537128816645,0.504834234714508,-0.119365945458412,-0.12121456861496
-3.52646964589133,2.06650367659858,-1.33149017074443,4.43537128816645,0.504074573516846,-0.119897648692131,-0.122145518660545
-3.52646964589133,2.06650367659858,-1.33149017074443,4.43537128816645,0.503216862678528,-0.120375104248524,-0.123147457838058
-3.52646964589133,2.06650367659858,-1.33149017074443,4.43537128816645,0.502309083938599,-0.120834641158581,-0.124240003526211
-3.52646964589133,2.06650367659858,-1.33149017074443,4.43537128816645,0.501412332057953,-0.12131404876709,-0.12544421851635
-3.52646964589133,2.06650367659858,-1.33149017074443,4.43537128816645,0.500526547431946,-0.121813327074051,-0.126760125160217
-3.52646964589133,2.06650367659858,-1.33149017074443,4.43537128816645,0.499651730060577,-0.122332476079464,-0.128187701106071
-3.52646964589133,2.06650367659858,-1.33149017074443,4.43537128816645,0.498751550912857,-0.122816994786263,-0.129692807793617
-3.66791822532511,1.99570598555439,-1.23322387231258,4.38844812012905,0.497764974832535,-0.123202949762344,-0.13122022151947
-3.89676011898818,1.93923584306035,-1.18722960746638,4.27480607253849,0.496667295694351,-0.123480893671513,-0.132748872041702
-4.18632488766069,1.90320695875837,-1.20106632223905,4.10360982665206,0.495458543300629,-0.123650826513767,-0.134278744459152
-4.50017880633699,1.89027949638577,-1.27319660387808,3.89282215773407,0.494138687849045,-0.123712748289108,-0.135809853672981
-4.79045796177432,1.89970674331453,-1.39324291630396,3.66517147530265,0.492748439311981,-0.123690634965897,-0.137315317988396
-5.01310850347564,1.92616837207,-1.54813725112027,3.43752079287123,0.491325587034225,-0.123617187142372,-0.138764604926109
-5.14169812114271,1.9593970840169,-1.71981500848492,3.24432931196727,0.489867210388184,-0.123501129448414,-0.140154093503952
-5.16360598193044,1.98450529613409,-1.89392700270773,3.098427586351,0.488373339176178,-0.123342454433441,-0.141483783721924
-5.08645221133019,1.98562536507612,-2.05714898993352,3.02291061279082,0.486843943595886,-0.123141169548035,-0.142753675580025
-4.93833602209145,1.94870975952836,-2.20102520002344,3.01337934428322,0.485318273305893,-0.122866757214069,-0.143981203436852
-4.75759617059274,1.86517128426858,-2.32312139611935,3.06983378082821,0.483844310045242,-0.122477799654007,-0.145151123404503
-4.58804837840949,1.73426322666876,-2.42330946049185,3.17064527465855,0.482430726289749,-0.121963396668434,-0.146230727434158
-4.46969830437146,1.56587952905017,-2.50440798318724,3.29088589275438,0.481077551841736,-0.121323548257351,-0.147220015525818
-4.43302645044419,1.3800414237516,-2.57064484927495,3.3971961953391,0.479784786701202,-0.120558254420757,-0.148118987679482
-4.49160616515919,1.20288385275376,-2.62202005875496,3.45658332988642,0.478541553020477,-0.119684956967831,-0.148905843496323
-4.63924609655471,1.06418198209898,-2.66327396761423,3.44521912512737,0.477349996566772,-0.118722550570965,-0.149560242891312
-4.85618154413749,0.991097483631482,-2.69145986807708,3.34990644005141,0.476223230361938,-0.117672488093376,-0.150083631277084
-5.10978884564755,1.00295154660131,-2.70542470057913,3.17027868740826,0.475161224603653,-0.116534769535065,-0.150476008653641
-5.36339614715761,1.10674460189614,-2.70709023106103,2.91806665920727,0.474164009094238,-0.11530939489603,-0.150737389922142
-5.57914095013236,1.29580290540305,-2.69402222266462,2.62223074822151,0.473215579986572,-0.113981835544109,-0.150869950652122
-5.72892404182234,1.55159865003928,-2.66750185268366,2.3190630922299,0.472336292266846,-0.112592048943043,-0.150910019874573
-5.79893394477441,1.84510338239054,-2.6306039466232,2.04742193976343,0.471562474966049,-0.111194536089897,-0.150891736149788
-5.78917065898858,2.14402178129494,-2.58691580090578,1.8388337943472,0.470894157886505,-0.109789304435253,-0.150815114378929
-5.70915934132907,2.41857868071018,-2.53964035876581,1.72299222325488,0.470331311225891,-0.10837634652853,-0.150680154561996
-5.58604668885893,2.64739943165918,-2.49236491662584,1.70942849499407,0.469890654087067,-0.106950581073761,-0.150441810488701
-5.44888443001405,2.82087010905616,-2.44752371134403,1.79924237131565,0.469548225402832,-0.105482935905457,-0.150081902742386
-5.33243938734887,2.94267760650199,-2.40396368335599,1.97703718770734,0.469263315200806,-0.103949442505836,-0.149627327919006
-5.25766690596468,3.02901625411684,-2.36232542130859,2.21971794740073,0.469035923480988,-0.102350100874901,-0.149078086018562
-5.24480794419797,3.10149404857407,-2.32209645428434,2.49282544886838,0.468866050243378,-0.100684903562069,-0.148434177041054
-5.29457688881356,3.18461249798059,-2.28084254542507,2.75933437983077,0.468744993209839,-0.0989880114793777,-0.147737011313438
-5.39292413343671,3.29815948697894,-2.23843557700141,2.98808482401307,0.468624800443649,-0.0973240882158279,-0.147010564804077
-5.51746555943649,3.45146892341937,-2.195772373119,3.15084956314278,0.468466222286224,-0.0957236588001251,-0.146237418055534
-5.63724440700415,3.64090058324029,-2.15541528836537,3.22856606020471,0.468269258737564,-0.0941867157816887,-0.145417556166649
-5.71630320897724,3.85040014493925,-2.1218484432687,3.21390257019303,0.468033939599991,-0.0927132666110992,-0.144550979137421
-5.72463772123344,4.05168586773,-2.09981219381593,3.1079588548586,0.467777669429779,-0.0913200229406357,-0.143589735031128
-5.64200698543626,4.21232242183288,-2.0955843087465,2.9213659444599,0.467528820037842,-0.0900062546133995,-0.142507672309875
-5.463410294232,4.29996781654677,-2.11083031854232,2.6739195505127,0.467298269271851,-0.0887545272707939,-0.141326576471329
-5.19622964419041,4.28914048344048,-2.15003434373156,2.3890812570357,0.467086017131805,-0.0875648409128189,-0.140046462416649
-4.87094553727705,4.16761300323016,-2.21383697296111,2.09764439305345,0.466892063617706,-0.0864371955394745,-0.138667315244675
-4.51684783084939,3.93855890458491,-2.2992914984553,1.82783617683843,0.466699004173279,-0.0853752270340919,-0.137238562107086
-4.17465657050202,3.62255945431454,-2.40191379968596,1.6009186689076,0.466505348682404,-0.0843970999121666,-0.135807424783707
-3.88199612584863,3.25270335574819,-2.51657916747802,1.43668758077672,0.466327100992203,-0.0835173428058624,-0.134371727705002
-3.66196500228497,2.87328000163534,-2.63624112671577,1.34540735545397,0.466164261102676,-0.08273596316576,-0.132931470870972
