EOG_left_h,EOG_right_h,EOG_left_v,EOG_right_v,head_horizontal,head_frontal,head_sagittal
1.4354046223552,6.10395849960271,-8.87565599628778,23.1110280649856,0.0,0.0,0.0
1.4354046223552,6.10395849960271,-8.87565599628778,23.1110280649856,-0.0015360260149464,0.00237143505364656,7.65661461628042e-05
1.4354046223552,6.10395849960271,-8.87565599628778,23.1110280649856,-0.00306893396191299,0.00473957229405642,0.000152123044244945
1.4354046223552,6.10395849960271,-8.87565599628778,23.1110280649856,-0.00459872744977474,0.00710441544651985,0.000226672360440716
1.4354046223552,6.10395849960271,-8.87565599628778,23.1110280649856,-0.00612540915608406,0.00946596823632717,0.000300215731840581
1.4354046223552,6.10395849960271,-8.87565599628778,23.1110280649856,-0.00764898303896189,0.0118242343887687,0.000372754817362875
1.4354046223552,6.10395849960271,-8.87565599628778,23.1110280649856,-0.00916945189237595,0.0141792166978121,0.000444291275925934
1.4354046223552,6.10395849960271,-8.87565599628778,23.1110280649856,-0.010686818510294,0.0165309198200703,0.000514826795551926
1.4354046223552,6.10395849960271,-8.87565599628778,23.1110280649856,-0.0122010875493288,0.018879346549511,0.000584362947847694
1.4354046223552,6.10395849960271,-8.87565599628778,23.1110280649856,-0.0137122608721256,0.0212245006114244,0.000652901420835406
1.4354046223552,6.10395849960271,-8.87565599628778,23.1110280649856,-0.0152203422039747,0.0235663875937462,0.000720443902537227
1.4354046223552,6.10395849960271,-8.87565599628778,23.1110280649856,-0.0167253352701664,0.0259050093591213,0.000786991964560002
1.4354046223552,6.10395849960271,-8.87565599628778,23.1110280649856,-0.0182272419333458,0.0282403696328402,0.000852547294925898
1.4354046223552,6.10395849960271,-8.87565599628778,23.1110280649856,-0.0197260659188032,0.030572472140193,0.000917111523449421
1.4354046223552,6.10395849960271,-8.87565599628778,23.1110280649856,-0.021221810951829,0.0329013206064701,0.000980686279945076
1.4354046223552,6.10395849960271,-8.87565599628778,23.1110280649856,-0.0227144807577133,0.0352269187569618,0.00104327325243503
1.4354046223552,6.10395849960271,-8.87565599628778,23.1110280649856,-0.0242040790617466,0.0375492684543133,0.00110487407073379
1.4354046223552,6.10395849960271,-8.87565599628778,23.1110280649856,-0.0256906077265739,0.0398683771491051,0.00116549036465585
1.4354046223552,6.10395849960271,-8.87565599628778,23.1110280649856,-0.0271740704774857,0.0421842448413372,0.00122512376401573
1.4354046223552,6.10395849960271,-8.87565599628778,23.1110280649856,-0.0286544691771269,0.0444968789815903,0.00128377589862794
1.4354046223552,6.10395849960271,-8.87565599628778,23.1110280649856,-0.0301318094134331,0.0468062795698643,0.00134144839830697
1.4354046223552,6.10395849960271,-8.87565599628778,23.1110280649856,-0.0316060930490494,0.0491124503314495,0.00139814289286733
1.4354046223552,6.10395849960271,-8.87565599628778,23.1110280649856,-0.0330773219466209,0.0514153987169266,0.00145386101212353
1.4354046223552,6.10395849960271,-8.87565599628778,23.1110280649856,-0.0345455035567284,0.0537151247262955,0.00150860438589007
1.4354046223552,6.10395849960271,-8.87565599628778,23.1110280649856,-0.0360106378793716,0.0560116320848465,0.00156237464398146
1.4354046223552,6.10395849960271,-8.87565599628778,23.1110280649856,-0.0374727286398411,0.0583049245178699,0.0016151734162122
1.4354046223552,6.10395849960271,-8.87565599628778,23.1110280649856,-0.038931779563427,0.0605950057506561,0.00166700233239681
1.4354046223552,6.10395849960271,-8.87565599628778,23.1110280649856,-0.0403877906501293,0.0628818795084953,0.0017178631387651
1.4354046223552,6.10395849960271,-8.87565599628778,23.1110280649856,-0.0418407693505287,0.0651655495166779,0.00176775734871626
1.4354046223552,6.10395849960271,-8.87565599628778,23.1110280649856,-0.0432907156646252,0.0674460232257843,0.0018166865920648
1.4354046223552,6.10395849960271,-8.87565599628778,23.1110280649856,-0.0447376370429993,0.0697233006358147,0.0018646523822099
1.4354046223552,6.10395849960271,-8.87565599628778,23.1110280649856,-0.046181533485651,0.071997381746769,0.00191165646538138
1.4354046223552,6.10395849960271,-8.87565599628778,23.1110280649856,-0.0476224087178707,0.0742682740092278,0.00195770058780909
1.4354046223552,6.10395849960271,-8.87565599628778,23.1110280649856,-0.0490602664649487,0.0765359848737717,0.00200278614647686
1.4354046223552,6.10395849960271,-8.87565599628778,23.1110280649856,-0.0504951067268848,0.0788005143404007,0.00204691477119923
1.4354046223552,6.10395849960271,-8.87565599628778,23.1110280649856,-0.0519269369542599,0.0810618624091148,0.00209008809179068
1.4354046223552,6.10395849960271,-8.87565599628778,23.1110280649856,-0.0533557571470737,0.0833200365304947,0.00213230797089636
1.4354046223552,6.10395849960271,-8.87565599628778,23.1110280649856,-0.0547815747559071,0.0855750441551209,0.00217357580550015
1.4354046223552,6.10395849960271,-8.87565599628778,23.1110280649856,-0.0562043897807598,0.0878268778324127,0.00221389322541654
1.4354046223552,6.10395849960271,-8.87565599628778,23.1110280649856,-0.0576242059469223,0.0900755524635315,0.00225326186046004
1.4354046223552,6.10395849960271,-8.87565599628778,23.1110280649856,-0.0590410269796848,0.0923210680484772,0.00229168310761452
1.4354046223552,6.10395849960271,-8.87565599628778,23.1110280649856,-0.0604548566043377,0.0945634245872498,0.00232915882952511
1.4354046223552,6.10395849960271,-8.87565599628778,23.1110280649856,-0.0618656948208809,0.0968026295304298,0.00236569065600634
1.4354046223552,6.10395849960271,-8.87565599628778,23.1110280649856,-0.063273549079895,0.0990386828780174,0.00240128021687269
1.4354046223552,6.10395849960271,-8.87565599628778,23.1110280649856,-0.0646784156560898,0.101271592080593,0.00243592890910804
1.4354046223552,6.10395849960271,-8.87565599628778,23.1110280649856,-0.0660803020000458,0.103501357138157,0.00246963836252689
1.4354046223552,6.10395849960271,-8.87565599628778,23.1110280649856,-0.0674792155623436,0.105727985501289,0.00250241043977439
1.4354046223552,6.10395849960271,-8.87565599628778,23.1110280649856,-0.0688751563429832,0.107951477169991,0.00253424653783441
1.4354046223552,6.10395849960271,-8.87565599628778,23.1110280649856,-0.0702681243419647,0.110171839594841,0.00256514828652143
1.4354046223552,6.10395849960271,-8.87565599628778,23.1110280649856,-0.0716581270098686,0.112389072775841,0.00259511731564999
1.4354046223552,6.10395849960271,-8.87565599628778,23.1110280649856,-0.0730451643466949,0.11460317671299,0.00262415502220392
1.4354046223552,6.10395849960271,-8.87565599628778,23.1110280649856,-0.0744292438030243,0.116814158856869,0.00265226326882839
1.4354046223552,6.10395849960271,-8.87565599628778,23.1110280649856,-0.0758103653788567,0.119022026658058,0.00267944345250726
1.4354046223552,6.10395849960271,-8.87565599628778,23.1110280649856,-0.077188529074192,0.121226780116558,0.00270569743588567
1.4354046223552,6.10395849960271,-8.87565599628778,23.1110280649856,-0.0785637423396111,0.123428426682949,0.00273102661594749
1.4354046223552,6.10395849960271,-8.87565599628778,23.1110280649856,-0.0799360126256943,0.125626966357231,0.00275543262250721
1.4354046223552,6.10395849960271,-8.87565599628778,23.1110280649856,-0.0813053324818611,0.127822399139404,0.00277891708537936
1.4354046223552,6.10395849960271,-8.87565599628778,23.1110280649856,-0.0826717093586922,0.130014732480049,0.00280148140154779
1.4354046223552,6.10395849960271,-8.87565599628778,23.1110280649856,-0.084035150706768,0.132203966379166,0.00282312743365765
1.4354046223552,6.10395849960271,-8.87565599628778,23.1110280649856,-0.0853956565260887,0.134390115737915,0.00284385657869279
1.4354046223552,6.10395849960271,-8.87565599628778,23.1110280649856,-0.0867532268166542,0.136573165655136,0.00286367046646774
1.4354046223552,6.10395849960271,-8.87565599628778,23.1110280649856,-0.0881078690290451,0.13875313103199,0.00288257072679698
1.4354046223552,6.10395849960271,-8.87565599628778,23.1110280649856,-0.089459590613842,0.140930011868477,0.00290055898949504
1.4354046223552,6.10395849960271,-8.87565599628778,23.1110280649856,-0.0908083841204643,0.143103823065758,0.00291763665154576
1.4354046223552,6.10395849960271,-8.87565599628778,23.1110280649856,-0.0921542569994926,0.145274549722672,0.00293380557559431
1.4354046223552,6.10395849960271,-8.87565599628778,23.1110280649856,-0.0934972167015076,0.147442206740379,0.00294906715862453
1.4354046223552,6.10395849960271,-8.87565599628778,23.1110280649856,-0.0948372632265091,0.149606794118881,0.00296342303045094
1.4354046223552,6.10395849960271,-8.87565599628778,23.1110280649856,-0.0961743965744972,0.151768326759338,0.0029768745880574
1.4354046223552,6.10395849960271,-8.87565599628778,23.1110280649856,-0.0975086241960526,0.15392678976059,0.00298942369408906
1.4354046223552,6.10395849960271,-8.87565599628778,23.1110280649856,-0.0988399460911751,0.156082198023796,0.00300107174552977
1.4354046223552,6.10395849960271,-8.87565599628778,23.1110280649856,-0.100168369710445,0.158234551548958,0.00301182037219405
1.4354046223552,6.10395849960271,-8.87565599628778,23.1110280649856,-0.101493895053864,0.160383850336075,0.0030216712038964
1.4354046223552,6.10395849960271,-8.87565599628778,23.1110280649856,-0.102816522121429,0.162530109286308,0.00303062563762069
1.4354046223552,6.10395849960271,-8.87565599628778,23.1110280649856,-0.104136258363724,0.164673328399658,0.00303868530318141
1.4354046223552,6.10395849960271,-8.87565599628778,23.1110280649856,-0.105453103780746,0.166813507676125,0.00304585183039308
1.4354046223552,6.10395849960271,-8.87565599628778,23.1110280649856,-0.106767065823078,0.168950647115707,0.00305212684907019
1.4354046223552,6.10395849960271,-8.87565599628778,23.1110280649856,-0.108078144490719,0.171084746718407,0.00305751175619662
1.4354046223552,6.10395849960271,-8.87565599628778,23.1110280649856,-0.109386347234249,0.173215821385384,0.00306200818158686
1.4354046223552,6.10395849960271,-8.87565599628778,23.1110280649856,-0.110691674053669,0.175343871116638,0.00306561775505543
1.4354046223552,6.10395849960271,-8.87565599628778,23.1110280649856,-0.111994124948978,0.17746889591217,0.00306834210641682
1.4354046223552,6.10395849960271,-8.87565599628778,23.1110280649856,-0.113293707370758,0.179590910673141,0.00307018263265491
1.4354046223552,6.10395849960271,-8.87565599628778,23.1110280649856,-0.114590421319008,0.18170990049839,0.00307114096358418
1.4354046223552,6.10395849960271,-8.87565599628778,23.1110280649856,-0.115884274244308,0.183825880289078,0.00307121872901917
1.4354046223552,6.10395849960271,-8.87565599628778,23.1110280649856,-0.11717526614666,0.185938850045204,0.00307041732594371
1.4354046223552,6.10395849960271,-8.87565599628778,23.1110280649856,-0.118463397026062,0.188048824667931,0.00306873838417232
1.4354046223552,6.10395849960271,-8.87565599628778,23.1110280649856,-0.119748674333096,0.190155789256096,0.00306618353351951
1.4354046223552,6.10395849960271,-8.87565599628778,23.1110280649856,-0.121031105518341,0.192259758710861,0.00306275417096913
1.4354046223552,6.10395849960271,-8.87565599628778,23.1110280649856,-0.122310683131218,0.194360733032227,0.00305845192633569
1.4354046223552,6.10395849960271,-8.87565599628778,23.1110280649856,-0.123587414622307,0.196458712220192,0.0030532784294337
1.4354046223552,6.10395849960271,-8.87565599628778,23.1110280649856,-0.124861307442188,0.198553711175919,0.00304723531007767
1.4354046223552,6.10395849960271,-8.87565599628778,23.1110280649856,-0.126132354140282,0.200645714998245,0.00304032396525145
1.4354046223552,6.10395849960271,-8.87565599628778,23.1110280649856,-0.127400577068329,0.202734738588333,0.0030325457919389
1.4354046223552,6.10395849960271,-8.87565599628778,23.1110280649856,-0.128665968775749,0.204820796847343,0.00302390265278518
1.4354046223552,6.10395849960271,-8.87565599628778,23.1110280649856,-0.129928529262543,0.206903874874115,0.00301439594477415
1.4354046223552,6.10395849960271,-8.87565599628778,23.1110280649856,-0.131188258528709,0.208983987569809,0.00300402706488967
1.4354046223552,6.10395849960271,-8.87565599628778,23.1110280649856,-0.132445156574249,0.211061134934425,0.00299279787577689
1.4354046223552,6.10395849960271,-8.87565599628778,23.1110280649856,-0.133699238300323,0.213135316967964,0.00298070977441967
1.4354046223552,6.10395849960271,-8.87565599628778,23.1110280649856,-0.134950503706932,0.215206533670425,0.00296776415780187
1.4354046223552,6.10395849960271,-8.87565599628778,23.1110280649856,-0.136198952794075,0.21727479994297,0.002953962655738
1.4354046223552,6.10395849960271,-8.87565599628778,23.1110280649856,-0.137444600462914,0.219340100884438,0.00293930689804256
1.4354046223552,6.10395849960271,-8.87565599628778,23.1110280649856,-0.138687431812286,0.221402451395988,0.00292379851453006
1.4354046223552,6.10395849960271,-8.87565599628778,23.1110280649856,-0.139927461743355,0.223461866378784,0.00290743890218437
1.4354046223552,6.10395849960271,-8.87565599628778,23.1110280649856,-0.141164690256119,0.225518330931664,0.00289022945798934
1.4354046223552,6.10395849960271,-8.87565599628778,23.1110280649856,-0.142399117350578,0.227571859955788,0.00287217181175947
1.4354046223552,6.10395849960271,-8.87565599628778,23.1110280649856,-0.143630743026733,0.229622453451157,0.00285326759330928
1.4354046223552,6.10395849960271,-8.87565599628778,23.1110280649856,-0.144859582185745,0.23167011141777,0.00283351819962263
1.4354046223552,6.10395849960271,-8.87565599628778,23.1110280649856,-0.146085634827614,0.23371484875679,0.00281292526051402
1.4354046223552,6.10395849960271,-8.87565599628778,23.1110280649856,-0.147308900952339,0.235756650567055,0.00279149040579796
1.4354046223552,6.10395849960271,-8.87565599628778,23.1110280649856,-0.148529380559921,0.237795531749725,0.00276921503245831
1.4354046223552,6.10395849960271,-8.87565599628778,23.1110280649856,-0.14974707365036,0.239831492304802,0.00274610053747892
1.4354046223552,6.10395849960271,-8.87565599628778,23.1110280649856,-0.150961995124817,0.241864547133446,0.00272214878350496
1.4354046223552,6.10395849960271,-8.87565599628778,23.1110280649856,-0.15217413008213,0.243894681334496,0.00269736093468964
1.4354046223552,6.10395849960271,-8.87565599628778,23.1110280649856,-0.153383493423462,0.245921909809113,0.00267173885367811
1.4354046223552,6.10395849960271,-8.87565599628778,23.1110280649856,-0.154590100049973,0.247946232557297,0.00264528370462358
1.4354046223552,6.10395849960271,-8.87565599628778,23.1110280649856,-0.155793935060501,0.249967649579048,0.00261799735017121
1.4354046223552,6.10395849960271,-8.87565599628778,23.1110280649856,-0.156995013356209,0.251986175775528,0.00258988118730485
1.4354046223552,6.10395849960271,-8.87565599628778,23.1110280649856,-0.158193320035934,0.254001796245575,0.00256093661300838
1.4354046223552,6.10395849960271,-8.87565599628778,23.1110280649856,-0.159388870000839,0.25601452589035,0.00253116525709629
1.4354046223552,6.10395849960271,-8.87565599628778,23.1110280649856,-0.160581678152084,0.258024364709854,0.00250056851655245
1.4354046223552,6.10395849960271,-8.87565599628778,23.1110280649856,-0.161771729588509,0.260031312704086,0.00246914802119136
1.4354046223552,6.10395849960271,-8.87565599628778,23.1110280649856,-0.162959039211273,0.262035399675369,0.00243690540082753
1.4354046223552,6.10395849960271,-8.87565599628778,23.1110280649856,-0.164143607020378,0.264036595821381,0.00240384205244482
1.4354046223552,6.10395849960271,-8.87565599628778,23.1110280649856,-0.165325433015823,0.266034930944443,0.00236995937302709
1.4354046223552,6.10395849960271,-8.87565599628778,23.1110280649856,-0.166504517197609,0.268030375242233,0.00233525899238884
1.4354046223552,6.10395849960271,-8.87565599628778,23.1110280649856,-0.167680859565735,0.270022958517075,0.0022997425403446
1.4354046223552,6.10395849960271,-8.87565599628778,23.1110280649856,-0.168854475021362,0.272012680768967,0.0022634114138782
1.4354046223552,6.10395849960271,-8.87565599628778,23.1110280649856,-0.170025363564491,0.27399954199791,0.00222626700997353
1.4354046223552,6.10395849960271,-8.87565599628778,23.1110280649856,-0.171193525195122,0.275983542203903,0.00218831095844507
1.4354046223552,6.10395849960271,-8.87565599628778,23.1110280649856,-0.172358959913254,0.277964681386948,0.0021495446562767
1.4354046223552,6.10395849960271,-8.87565599628778,23.1110280649856,-0.173521667718887,0.279942989349365,0.00210996973328292
1.4354046223552,6.10395849960271,-8.87565599628778,23.1110280649856,-0.174681663513184,0.281918436288834,0.0020695875864476
1.4354046223552,6.10395849960271,-8.87565599628778,23.1110280649856,-0.175838947296143,0.283891052007675,0.00202839984558523
1.4354046223552,6.10395849960271,-8.87565599628778,23.1110280649856,-0.176993519067764,0.285860806703568,0.00198640790767968
1.4354046223552,6.10395849960271,-8.87565599628778,23.1110280649856,-0.178145378828049,0.287827730178833,0.00194361328613013
1.4354046223552,6.10395849960271,-8.87565599628778,23.1110280649856,-0.179294541478157,0.289791822433472,0.00190001749433577
1.4354046223552,6.10395849960271,-8.87565599628778,23.1110280649856,-0.180440992116928,0.291753083467484,0.00185562204569578
1.4354046223552,6.10395849960271,-8.87565599628778,23.1110280649856,-0.181584745645523,0.293711513280869,0.00181042845360935
1.4354046223552,6.10395849960271,-8.87565599628778,23.1110280649856,-0.182725802063942,0.295667111873627,0.00176443811506033
1.4354046223552,6.10395849960271,-8.87565599628778,23.1110280649856,-0.183864161372185,0.29761990904808,0.00171765265986323
1.4354046223552,6.10395849960271,-8.87565599628778,23.1110280649856,-0.184999838471413,0.299569875001907,0.00167007348500192
1.4354046223552,6.10395849960271,-8.87565599628778,23.1110280649856,-0.186132833361626,0.30151703953743,0.00162170210387558
1.4354046223552,6.10395849960271,-8.87565599628778,23.1110280649856,-0.187263131141663,0.303461402654648,0.00157253991346806
1.4354046223552,6.10395849960271,-8.87565599628778,23.1110280649856,-0.188390761613846,0.305402934551239,0.00152258854359388
1.4354046223552,6.10395849960271,-8.87565599628778,23.1110280649856,-0.189515709877014,0.307341665029526,0.0014718493912369
1.4354046223552,6.10395849960271,-8.87565599628778,23.1110280649856,-0.190637975931168,0.309277594089508,0.00142032408621162
1.4354046223552,6.10395849960271,-8.87565599628778,23.1110280649856,-0.191757574677467,0.311210721731186,0.00136801402550191
1.4354046223552,6.10395849960271,-8.87565599628778,23.1110280649856,-0.192874506115913,0.313141077756882,0.00131492060609162
1.4354046223552,6.10395849960271,-8.87565599628778,23.1110280649856,-0.193988770246506,0.315068632364273,0.00126104545779526
1.4354046223552,6.10395849960271,-8.87565599628778,23.1110280649856,-0.195100367069244,0.31699338555336,0.0012063899775967
1.4354046223552,6.10395849960271,-8.87565599628778,23.1110280649856,-0.196209296584129,0.318915367126465,0.00115095567889512
1.4354046223552,6.10395849960271,-8.87565599628778,23.1110280649856,-0.197315573692322,0.320834577083588,0.00109474395867437
1.4354046223552,6.10395849960271,-8.87565599628778,23.1110280649856,-0.198419198393822,0.322751015424728,0.00103775633033365
1.4354046223552,6.10395849960271,-8.87565599628778,23.1110280649856,-0.199520170688629,0.324664652347565,0.000979994307272136
1.4354046223552,6.10395849960271,-8.87565599628778,23.1110280649856,-0.200618490576744,0.326575517654419,0.000921459402889013
1.4354046223552,6.10395849960271,-8.87565599628778,23.1110280649856,-0.201714172959328,0.328483641147614,0.000862153014168143
1.4354046223552,6.10395849960271,-8.87565599628778,23.1110280649856,-0.202807202935219,0.330388993024826,0.00080207665450871
1.4354046223552,6.10395849960271,-8.87565599628778,23.1110280649856,-0.203897595405579,0.332291573286057,0.000741231779102236
1.4354046223552,6.10395849960271,-8.87565599628778,23.1110280649856,-0.204985350370407,0.334191411733627,0.000679619901347905
1.4354046223552,6.10395849960271,-8.87565599628778,23.1110280649856,-0.206070467829704,0.336088478565216,0.000617242476437241
1.4354046223552,6.10395849960271,-8.87565599628778,23.1110280649856,-0.207152962684631,0.337982803583145,0.000554100959561765
1.4354046223552,6.10395849960271,-8.87565599628778,23.1110280649856,-0.208232834935188,0.339874386787415,0.000490196805913001
1.4354046223552,6.10395849960271,-8.87565599628778,23.1110280649856,-0.209310069680214,0.341763228178024,0.000425531470682472
1.4354046223552,6.10395849960271,-8.87565599628778,23.1110280649856,-0.210384681820869,0.343649327754974,0.000360106438165531
1.4354046223552,6.10395849960271,-8.87565599628778,23.1110280649856,-0.211456686258316,0.345532685518265,0.00029392319265753
1.4354046223552,6.10395849960271,-8.87565599628778,23.1110280649856,-0.212526068091393,0.347413301467896,0.000226983174798079
1.4354046223552,6.10395849960271,-8.87565599628778,23.1110280649856,-0.21359284222126,0.349291205406189,0.000159287854330614
1.4354046223552,6.10395849960271,-8.87565599628778,23.1110280649856,-0.214656993746758,0.351166367530823,9.08386937226169e-05
1.4354046223552,6.10395849960271,-8.87565599628778,23.1110280649856,-0.215718537569046,0.353038817644119,2.16371554415673e-05
1.4354046223552,6.10395849960271,-8.87565599628778,23.1110280649856,-0.216777488589287,0.354908525943756,-4.83153198729269e-05
1.4354046223552,6.10395849960271,-8.87565599628778,23.1110280649856,-0.217833831906319,0.356775522232056,-0.000119017269753385
1.4354046223552,6.10395849960271,-8.87565599628778,23.1110280649856,-0.218887582421303,0.358639806509018,-0.00019046722445637
1.4354046223552,6.10395849960271,-8.87565599628778,23.1110280649856,-0.219938725233078,0.360501378774643,-0.000262663728790358
1.4354046223552,6.10395849960271,-8.87565599628778,23.1110280649856,-0.220987275242805,0.362360239028931,-0.000335605349391699
1.4354046223552,6.10395849960271,-8.87565599628778,23.1110280649856,-0.222033247351646,0.364216387271881,-0.00040929060196504
1.4354046223552,6.10395849960271,-8.87565599628778,23.1110280649856,-0.22307662665844,0.366069853305817,-0.000483718060422689
1.4354046223552,6.10395849960271,-8.87565599628778,23.1110280649856,-0.224117428064346,0.367920607328415,-0.000558886269573122
1.4354046223552,6.10395849960271,-8.87565599628778,23.1110280649856,-0.225155636668205,0.369768679141998,-0.000634793774224818
1.4354046223552,6.10395849960271,-8.87565599628778,23.1110280649856,-0.226191267371178,0.371614038944244,-0.000711439119186252
1.4354046223552,6.10395849960271,-8.87565599628778,23.1110280649856,-0.227224335074425,0.373456716537476,-0.000788820849265903
1.4354046223552,6.10395849960271,-8.87565599628778,23.1110280649856,-0.228254824876785,0.375296711921692,-0.000866937567479908
1.4354046223552,6.10395849960271,-8.87565599628778,23.1110280649856,-0.229282736778259,0.377134025096893,-0.000945787818636745
1.4354046223552,6.10395849960271,-8.87565599628778,23.1110280649856,-0.230308085680008,0.37896865606308,-0.00102537008933723
1.4354046223552,6.10395849960271,-8.87565599628778,23.1110280649856,-0.231330871582031,0.380800604820251,-0.00110568304080516
1.4354046223552,6.10395849960271,-8.87565599628778,23.1110280649856,-0.232351094484329,0.382629901170731,-0.00118672510143369
1.4354046223552,6.10395849960271,-8.87565599628778,23.1110280649856,-0.233368769288063,0.384456515312195,-0.00126849499065429
1.4354046223552,6.10395849960271,-8.87565599628778,23.1110280649856,-0.234383881092072,0.386280477046967,-0.00135099119506776
1.4354046223552,6.10395849960271,-8.87565599628778,23.1110280649856,-0.235396444797516,0.388101756572723,-0.00143421220127493
1.4354046223552,6.10395849960271,-8.87565599628778,23.1110280649856,-0.236406460404396,0.389920383691788,-0.00151815661229193
1.4354046223552,6.10395849960271,-8.87565599628778,23.1110280649856,-0.237413927912712,0.39173635840416,-0.0016028230311349
1.4354046223552,6.10395849960271,-8.87565599628778,23.1110280649856,-0.238418847322464,0.393549680709839,-0.00168821006081998
1.4354046223552,6.10395849960271,-8.87565599628778,23.1110280649856,-0.239421233534813,0.395360350608826,-0.00177431618794799
1.4354046223552,6.10395849960271,-8.87565599628778,23.1110280649856,-0.240421071648598,0.39716836810112,-0.00186114001553506
1.4354046223552,6.10395849960271,-8.87565599628778,23.1110280649856,-0.24141837656498,0.398973762989044,-0.00194868014659733
1.4354046223552,6.10395849960271,-8.87565599628778,23.1110280649856,-0.242413148283958,0.400776505470276,-0.00203693495132029
1.4354046223552,6.10395849960271,-8.87565599628778,23.1110280649856,-0.243405401706696,0.402576625347137,-0.00212590326555073
1.4354046223552,6.10395849960271,-8.87565599628778,23.1110280649856,-0.24439512193203,0.404374092817307,-0.00221558357588947
1.4354046223552,6.10395849960271,-8.87565599628778,23.1110280649856,-0.245382323861122,0.406168937683105,-0.00230597448535264
1.4354046223552,6.10395849960271,-8.87565599628778,23.1110280649856,-0.246367007493973,0.407961159944534,-0.00239707436412573
1.4354046223552,6.10395849960271,-8.87565599628778,23.1110280649856,-0.247349172830582,0.409750759601593,-0.00248888204805553
1.4354046223552,6.10395849960271,-8.87565599628778,23.1110280649856,-0.248328819870949,0.411537736654282,-0.00258139590732753
1.4354046223552,6.10395849960271,-8.87565599628778,23.1110280649856,-0.249305948615074,0.4133220911026,-0.00267461477778852
1.4354046223552,6.10395849960271,-8.87565599628778,23.1110280649856,-0.25028058886528,0.415103822946548,-0.00276853702962399
1.4354046223552,6.10395849960271,-8.87565599628778,23.1110280649856,-0.251252710819244,0.416882961988449,-0.00286316126585007
1.4354046223552,6.10395849960271,-8.87565599628778,23.1110280649856,-0.252222329378128,0.41865947842598,-0.0029584860894829
1.4354046223552,6.10395849960271,-8.87565599628778,23.1110280649856,-0.253189444541931,0.420433402061462,-0.00305451010353863
1.4354046223552,6.10395849960271,-8.87565599628778,23.1110280649856,-0.254154056310654,0.422204732894897,-0.00315123191103339
1.4354046223552,6.10395849960271,-8.87565599628778,23.1110280649856,-0.255116194486618,0.423973470926285,-0.00324865011498332
1.4354046223552,6.10395849960271,-8.87565599628778,23.1110280649856,-0.256075829267502,0.425739586353302,-0.00334676331840456
1.4354046223552,6.10395849960271,-8.87565599628778,23.1110280649856,-0.257032960653305,0.427503108978271,-0.00344556989148259
1.4354046223552,6.10395849960271,-8.87565599628778,23.1110280649856,-0.25798761844635,0.429264068603516,-0.00354506867006421
1.4354046223552,6.10395849960271,-8.87565599628778,23.1110280649856,-0.258939802646637,0.431022435426712,-0.00364525802433491
1.4354046223552,6.10395849960271,-8.87565599628778,23.1110280649856,-0.259889483451843,0.432778209447861,-0.00374613679014146
1.4354046223552,6.10395849960271,-8.87565599628778,23.1110280649856,-0.260836690664291,0.434531420469284,-0.00384770333766937
1.4354046223552,6.10395849960271,-8.87565599628778,23.1110280649856,-0.261781424283981,0.43628203868866,-0.00394995650276542
1.4354046223552,6.10395849960271,-8.87565599628778,23.1110280649856,-0.262723684310913,0.43803009390831,-0.00405289465561509
1.4354046223552,6.10395849960271,-8.87565599628778,23.1110280649856,-0.263663500547409,0.439775586128235,-0.00415651639923453
1.4354046223552,6.10395849960271,-8.87565599628778,23.1110280649856,-0.264600843191147,0.441518515348434,-0.00426082033663988
1.4354046223552,6.10395849960271,-8.87565599628778,23.1110280649856,-0.265535712242126,0.443258881568909,-0.00436580507084727
1.4354046223552,6.10395849960271,-8.87565599628778,23.1110280649856,-0.26646813750267,0.444996684789658,-0.00447146967053413
1.4354046223552,6.10395849960271,-8.87565599628778,23.1110280649856,-0.267398089170456,0.446731925010681,-0.00457781227305532
1.4354046223552,6.10395849960271,-8.87565599628778,23.1110280649856,-0.268325597047806,0.448464602231979,-0.00468483148142695
1.4354046223552,6.10395849960271,-8.87565599628778,23.1110280649856,-0.269250631332397,0.450194746255875,-0.00479252589866519
1.4354046223552,6.10395849960271,-8.87565599628778,23.1110280649856,-0.270173221826553,0.451922327280045,-0.00490089412778616
1.4354046223552,6.10395849960271,-8.87565599628778,23.1110280649856,-0.271093368530273,0.453647375106812,-0.005009934771806
1.4354046223552,6.10395849960271,-8.87565599628778,23.1110280649856,-0.272011071443558,0.455369889736176,-0.00511964643374085
1.4354046223552,6.10395849960271,-8.87565599628778,23.1110280649856,-0.272926330566406,0.457089871168137,-0.00523002771660686
1.4354046223552,6.10395849960271,-8.87565599628778,23.1110280649856,-0.273839145898819,0.458807319402695,-0.00534107722342014
1.4354046223552,6.10395849960271,-8.87565599628778,23.1110280649856,-0.274749547243118,0.46052223443985,-0.00545279402285814
1.4354046223552,6.10395849960271,-8.87565599628778,23.1110280649856,-0.275657504796982,0.462234616279602,-0.00556517625227571
1.4354046223552,6.10395849960271,-8.87565599628778,23.1110280649856,-0.276563048362732,0.463944464921951,-0.00567822251468897
1.4354046223552,6.10395849960271,-8.87565599628778,23.1110280649856,-0.277466148138046,0.465651780366898,-0.00579193141311407
1.4354046223552,6.10395849960271,-8.87565599628778,23.1110280649856,-0.278366833925247,0.467356592416763,-0.00590630155056715
1.4354046223552,6.10395849960271,-8.87565599628778,23.1110280649856,-0.279265105724335,0.469058901071548,-0.00602133199572563
1.4354046223552,6.10395849960271,-8.87565599628778,23.1110280649856,-0.280160963535309,0.470758676528931,-0.00613702088594437
1.4354046223552,6.10395849960271,-8.87565599628778,23.1110280649856,-0.281054377555847,0.472455948591232,-0.00625336682423949
1.4354046223552,6.10395849960271,-8.87565599628778,23.1110280649856,-0.281945407390594,0.474150717258453,-0.00637036887928844
1.4354046223552,6.10395849960271,-8.87565599628778,23.1110280649856,-0.282834023237228,0.475842982530594,-0.00648802518844604
1.4354046223552,6.10395849960271,-8.87565599628778,23.1110280649856,-0.283720225095749,0.477532744407654,-0.00660633435472846
1.4354046223552,6.10395849960271,-8.87565599628778,23.1110280649856,-0.284604012966156,0.479220002889633,-0.00672529544681311
1.4354046223552,6.10395849960271,-8.87565599628778,23.1110280649856,-0.285485416650772,0.480904787778854,-0.00684490660205483
1.4354046223552,6.10395849960271,-8.87565599628778,23.1110280649856,-0.286364406347275,0.482587069272995,-0.00696516688913107
1.4354046223552,6.10395849960271,-8.87565599628778,23.1110280649856,-0.287241011857986,0.484266877174377,-0.00708607444539666
1.4354046223552,6.10395849960271,-8.87565599628778,23.1110280649856,-0.288115233182907,0.485944181680679,-0.00720762833952904
1.4354046223552,6.10395849960271,-8.87565599628778,23.1110280649856,-0.288987040519714,0.487619012594223,-0.00732982717454433
1.4354046223552,6.10395849960271,-8.87565599628778,23.1110280649856,-0.289856463670731,0.489291369915009,-0.0074526690877974
1.4354046223552,6.10395849960271,-8.87565599628778,23.1110280649856,-0.290723502635956,0.490961253643036,-0.00757615314796567
1.4354046223552,6.10395849960271,-8.87565599628778,23.1110280649856,-0.29158815741539,0.492628663778305,-0.00770027795806527
1.4354046223552,6.10395849960271,-8.87565599628778,23.1110280649856,-0.292450428009033,0.494293600320816,-0.00782504212111235
1.4354046223552,6.10395849960271,-8.87565599628778,23.1110280649856,-0.293310344219208,0.495956063270569,-0.00795044377446175
1.4354046223552,6.10395849960271,-8.87565599628778,23.1110280649856,-0.294167876243591,0.497616082429886,-0.00807648245245218
1.4354046223552,6.10395849960271,-8.87565599628778,23.1110280649856,-0.295023053884506,0.499273627996445,-0.00820315629243851
1.4354046223552,6.10395849960271,-8.87565599628778,23.1110280649856,-0.29587584733963,0.500928699970245,-0.00833046436309814
1.4354046223552,6.10395849960271,-8.87565599628778,23.1110280649856,-0.296726286411285,0.502581357955933,-0.00845840480178595
1.4354046223552,6.10395849960271,-8.87565599628778,23.1110280649856,-0.29757434129715,0.504231572151184,-0.00858697574585676
1.4354046223552,6.10395849960271,-8.87565599628778,23.1110280649856,-0.298420041799545,0.505879342556,-0.00871617719531059
1.4354046223552,6.10395849960271,-8.87565599628778,23.1110280649856,-0.299263387918472,0.50752466917038,-0.00884600635617971
1.4354046223552,6.10395849960271,-8.87565599628778,23.1110280649856,-0.300104379653931,0.509167551994324,-0.00897646322846413
1.4354046223552,6.10395849960271,-8.87565599628778,23.1110280649856,-0.30094301700592,0.510807991027832,-0.00910754501819611
1.4354046223552,6.10395849960271,-8.87565599628778,23.1110280649856,-0.301779299974442,0.512445986270905,-0.00923925172537565
1.4354046223552,6.10395849960271,-8.87565599628778,23.1110280649856,-0.302613258361816,0.514081537723541,-0.00937158148735762
1.4354046223552,6.10395849960271,-8.87565599628778,23.1110280649856,-0.303444862365723,0.515714645385742,-0.00950453244149685
1.4354046223552,6.10395849960271,-8.87565599628778,23.1110280649856,-0.304274141788483,0.517345368862152,-0.00963810365647078
1.4354046223552,6.10395849960271,-8.87565599628778,23.1110280649856,-0.305101066827774,0.518973648548126,-0.00977229420095682
1.4354046223552,6.10395849960271,-8.87565599628778,23.1110280649856,-0.305925667285919,0.520599484443665,-0.00990710221230984
1.4354046223552,6.10395849960271,-8.87565599628778,23.1110280649856,-0.306747943162918,0.522222936153412,-0.0100425258278847
1.4354046223552,6.10395849960271,-8.87565599628778,23.1110280649856,-0.307567864656448,0.523843944072723,-0.0101785650476813
1.4354046223552,6.10395849960271,-8.87565599628778,23.1110280649856,-0.308385461568832,0.525462567806244,-0.0103152170777321
1.4354046223552,6.10395849960271,-8.87565599628778,23.1110280649856,-0.30920073390007,0.527078807353973,-0.0104524819180369
1.4354046223552,6.10395849960271,-8.87565599628778,23.1110280649856,-0.310013711452484,0.528692603111267,-0.0105903577059507
1.4354046223552,6.10395849960271,-8.87565599628778,23.1110280649856,-0.310824364423752,0.53030401468277,-0.0107288425788283
1.4354046223552,6.10395849960271,-8.87565599628778,23.1110280649856,-0.311632692813873,0.531913042068481,-0.0108679356053472
1.4354046223552,6.10395849960271,-8.87565599628778,23.1110280649856,-0.312438696622849,0.533519685268402,-0.0110076358541846
1.4354046223552,6.10395849960271,-8.87565599628778,23.1110280649856,-0.313242405653,0.535123944282532,-0.0111479414626956
1.4354046223552,6.10395849960271,-8.87565599628778,23.1110280649856,-0.314043790102005,0.536725759506226,-0.0112888505682349
1.4354046223552,6.10395849960271,-8.87565599628778,23.1110280649856,-0.314842879772186,0.538325190544128,-0.0114303631708026
1.4354046223552,6.10395849960271,-8.87565599628778,23.1110280649856,-0.315639674663544,0.539922297000885,-0.0115724764764309
1.4354046223552,6.10395849960271,-8.87565599628778,23.1110280649856,-0.316434174776077,0.541517019271851,-0.0117151904851198
1.4354046223552,6.10395849960271,-8.87565599628778,23.1110280649856,-0.317226380109787,0.543109357357025,-0.0118585033342242
1.4354046223552,6.10395849960271,-8.87565599628778,23.1110280649856,-0.318016290664673,0.544699311256409,-0.012002413161099
1.4354046223552,6.10395849960271,-8.87565599628778,23.1110280649856,-0.318803906440735,0.546286880970001,-0.0121469190344214
1.4354046223552,6.10395849960271,-8.87565599628778,23.1110280649856,-0.319589227437973,0.547872066497803,-0.0122920200228691
1.4354046223552,6.10395849960271,-8.87565599628778,23.1110280649856,-0.320372253656387,0.549454927444458,-0.0124377142637968
1.4354046223552,6.10395849960271,-8.87565599628778,23.1110280649856,-0.3211530148983,0.551035404205322,-0.012584000825882
1.4354046223552,6.10395849960271,-8.87565599628778,23.1110280649856,-0.321931481361389,0.55261355638504,-0.0127308778464794
1.4354046223552,6.10395849960271,-8.87565599628778,23.1110280649856,-0.322707682847977,0.554189324378967,-0.0128783443942666
1.4354046223552,6.10395849960271,-8.87565599628778,23.1110280649856,-0.323481619358063,0.555762767791748,-0.0130263986065984
1.4354046223552,6.10395849960271,-8.87565599628778,23.1110280649856,-0.324253261089325,0.557333827018738,-0.0131750404834747
1.4354046223552,6.10395849960271,-8.87565599628778,23.1110280649856,-0.325022637844086,0.558902561664581,-0.0133242672309279
1.4354046223552,6.10395849960271,-8.87565599628778,23.1110280649856,-0.325789749622345,0.560468971729279,-0.0134740779176354
1.4354046223552,6.10395849960271,-8.87565599628778,23.1110280649856,-0.326554596424103,0.562032997608185,-0.0136244716122746
1.4354046223552,6.10395849960271,-8.87565599628778,23.1110280649856,-0.327317178249359,0.563594698905945,-0.013775447383523
1.4354046223552,6.10395849960271,-8.87565599628778,23.1110280649856,-0.328077524900436,0.565154075622559,-0.0139270033687353
1.4354046223552,6.10395849960271,-8.87565599628778,23.1110280649856,-0.328835606575012,0.566711127758026,-0.0140791377052665
1.4354046223552,6.10395849960271,-8.87565599628778,23.1110280649856,-0.329591423273087,0.568265855312347,-0.0142318494617939
1.4354046223552,6.10395849960271,-8.87565599628778,23.1110280649856,-0.330345004796982,0.569818258285522,-0.014385137706995
1.4354046223552,6.10395849960271,-8.87565599628778,23.1110280649856,-0.331096321344376,0.571368336677551,-0.0145390005782247
1.4354046223552,6.10395849960271,-8.87565599628778,23.1110280649856,-0.33184540271759,0.572916090488434,-0.0146934371441603
1.4354046223552,6.10395849960271,-8.87565599628778,23.1110280649856,-0.332592248916626,0.57446151971817,-0.0148484464734793
1.4354046223552,6.10395849960271,-8.87565599628778,23.1110280649856,-0.333336859941483,0.57600462436676,-0.0150040267035365
1.4354046223552,6.10395849960271,-8.87565599628778,23.1110280649856,-0.33407923579216,0.577545464038849,-0.0151601759716868
1.4354046223552,6.10395849960271,-8.87565599628778,23.1110280649856,-0.334819376468658,0.579083979129791,-0.0153168942779303
1.4354046223552,6.10395849960271,-8.87565599628778,23.1110280649856,-0.335557281970978,0.580620169639587,-0.0154741797596216
1.4354046223552,6.10395849960271,-8.87565599628778,23.1110280649856,-0.336292952299118,0.582154095172882,-0.0156320314854383
1.4354046223552,6.10395849960271,-8.87565599628778,23.1110280649856,-0.337026387453079,0.583685696125031,-0.0157904475927353
1.4354046223552,6.10395849960271,-8.87565599628778,23.1110280649856,-0.337757617235184,0.585215032100677,-0.0159494262188673
1.4354046223552,6.10395849960271,-8.87565599628778,23.1110280649856,-0.338486611843109,0.586742043495178,-0.0161089655011892
1.4354046223552,6.10395849960271,-8.87565599628778,23.1110280649856,-0.339213401079178,0.588266789913177,-0.0162690654397011
1.4354046223552,6.10395849960271,-8.87565599628778,23.1110280649856,-0.339937955141068,0.589789211750031,-0.0164297260344028
1.4354046223552,6.10395849960271,-8.87565599628778,23.1110280649856,-0.3406603038311,0.591309368610382,-0.0165909435600042
1.4354046223552,6.10395849960271,-8.87565599628778,23.1110280649856,-0.341380447149277,0.592827260494232,-0.0167527180165052
1.4354046223552,6.10395849960271,-8.87565599628778,23.1110280649856,-0.342098385095596,0.594342887401581,-0.0169150475412607
1.4354046223552,6.10395849960271,-8.87565599628778,23.1110280649856,-0.342814117670059,0.595856249332428,-0.0170779321342707
1.4354046223552,6.10395849960271,-8.87565599628778,23.1110280649856,-0.343527644872665,0.597367286682129,-0.0172413680702448
1.4354046223552,6.10395849960271,-8.87565599628778,23.1110280649856,-0.344238966703415,0.598876059055328,-0.0174053553491831
1.4354046223552,6.10395849960271,-8.87565599628778,23.1110280649856,-0.344948083162308,0.600382566452026,-0.0175698939710855
1.4354046223552,6.10395849960271,-8.87565599628778,23.1110280649856,-0.345655024051666,0.601886808872223,-0.0177349802106619
1.4354046223552,6.10395849960271,-8.87565599628778,23.1110280649856,-0.346359759569168,0.603388845920563,-0.0179006140679121
1.4354046223552,6.10395849960271,-8.87565599628778,23.1110280649856,-0.347062319517136,0.604888617992401,-0.0180667955428362
1.4354046223552,6.10395849960271,-8.87565599628778,23.1110280649856,-0.347762674093246,0.606386125087738,-0.0182335209101439
1.4354046223552,6.10395849960271,-8.87565599628778,23.1110280649856,-0.348460853099823,0.607881367206573,-0.0184007901698351
1.4354046223552,6.10395849960271,-8.87565599628778,23.1110280649856,-0.349156856536865,0.609374344348907,-0.0185686014592648
1.4354046223552,6.10395849960271,-8.87565599628778,23.1110280649856,-0.349850684404373,0.610865116119385,-0.0187369547784328
1.4354046223552,6.10395849960271,-8.87565599628778,23.1110280649856,-0.350542336702347,0.612353622913361,-0.0189058482646942
1.4354046223552,6.10395849960271,-8.87565599628778,23.1110280649856,-0.351231813430786,0.61383992433548,-0.0190752800554037
1.4354046223552,6.10395849960271,-8.87565599628778,23.1110280649856,-0.351919114589691,0.615323960781097,-0.0192452482879162
1.4354046223552,6.10395849960271,-8.87565599628778,23.1110280649856,-0.352604240179062,0.616805791854858,-0.0194157529622316
1.4354046223552,6.10395849960271,-8.87565599628778,23.1110280649856,-0.353287220001221,0.618285357952118,-0.0195867922157049
1.4354046223552,6.10395849960271,-8.87565599628778,23.1110280649856,-0.353968024253845,0.619762718677521,-0.0197583641856909
1.4354046223552,6.10395849960271,-8.87565599628778,23.1110280649856,-0.354646682739258,0.621237874031067,-0.0199304688721895
1.4354046223552,6.10395849960271,-8.87565599628778,23.1110280649856,-0.355323165655136,0.622710764408112,-0.0201031044125557
1.4354046223552,6.10395849960271,-8.87565599628778,23.1110280649856,-0.355997502803802,0.6241814494133,-0.0202762689441442
1.4354046223552,6.10395849960271,-8.87565599628778,23.1110280649856,-0.356669694185257,0.625649929046631,-0.0204499624669552
1.4354046223552,6.10395849960271,-8.87565599628778,23.1110280649856,-0.3573397397995,0.627116203308105,-0.0206241831183434
1.4354046223552,6.10395849960271,-8.87565599628778,23.1110280649856,-0.35800763964653,0.628580272197723,-0.0207989290356636
1.4354046223552,6.10395849960271,-8.87565599628778,23.1110280649856,-0.358673393726349,0.630042135715485,-0.0209742002189159
1.4354046223552,6.10395849960271,-8.87565599628778,23.1110280649856,-0.359337002038956,0.631501793861389,-0.0211499929428101
1.4354046223552,6.10395849960271,-8.87565599628778,23.1110280649856,-0.359998464584351,0.632959246635437,-0.0213263090699911
1.4354046223552,6.10395849960271,-8.87565599628778,23.1110280649856,-0.360657781362534,0.634414494037628,-0.0215031448751688
1.4354046223552,6.10395849960271,-8.87565599628778,23.1110280649856,-0.361314982175827,0.635867536067963,-0.0216805003583431
1.4354046223552,6.10395849960271,-8.87565599628778,23.1110280649856,-0.361970037221909,0.637318432331085,-0.0218583736568689
1.4354046223552,6.10395849960271,-8.87565599628778,23.1110280649856,-0.362622976303101,0.638767123222351,-0.0220367647707462
1.4354046223552,6.10395849960271,-8.87565599628778,23.1110280649856,-0.363273799419403,0.64021360874176,-0.0222156699746847
1.4354046223552,6.10395849960271,-8.87565599628778,23.1110280649856,-0.363922476768494,0.641657948493958,-0.0223950911313295
1.4354046223552,6.10395849960271,-8.87565599628778,23.1110280649856,-0.364569038152695,0.643100082874298,-0.0225750245153904
1.4354046223552,6.10395849960271,-8.87565599628778,23.1110280649856,-0.365213483572006,0.644540071487427,-0.0227554701268673
1.4354046223552,6.10395849960271,-8.87565599628778,23.1110280649856,-0.365855813026428,0.645977854728699,-0.0229364261031151
1.4354046223552,6.10395849960271,-8.87565599628778,23.1110280649856,-0.366496026515961,0.647413492202759,-0.0231178905814886
1.4354046223552,6.10395849960271,-8.87565599628778,23.1110280649856,-0.367134124040604,0.648846924304962,-0.0232998635619879
1.4354046223552,6.10395849960271,-8.87565599628778,23.1110280649856,-0.367770135402679,0.650278210639954,-0.0234823431819677
1.4354046223552,6.10395849960271,-8.87565599628778,23.1110280649856,-0.368404030799866,0.651707351207733,-0.0236653294414282
1.4354046223552,6.10395849960271,-8.87565599628778,23.1110280649856,-0.369035840034485,0.653134286403656,-0.0238488186150789
1.4354046223552,6.10395849960271,-8.87565599628778,23.1110280649856,-0.369665533304214,0.654559075832367,-0.02403281070292
1.4354046223552,6.10395849960271,-8.87565599628778,23.1110280649856,-0.370293140411377,0.655981719493866,-0.0242173057049513
1.4354046223552,6.10395849960271,-8.87565599628778,23.1110280649856,-0.37091863155365,0.657402217388153,-0.0244022998958826
1.4354046223552,6.10395849960271,-8.87565599628778,23.1110280649856,-0.371542036533356,0.658820569515228,-0.0245877932757139
1.4354046223552,6.10395849960271,-8.87565599628778,23.1110280649856,-0.372163355350494,0.660236775875092,-0.0247737858444452
1.4354046223552,6.10395849960271,-8.87565599628778,23.1110280649856,-0.372782588005066,0.661650836467743,-0.0249602738767862
1.4354046223552,6.10395849960271,-8.87565599628778,23.1110280649856,-0.37339973449707,0.663062751293182,-0.0251472573727369
1.4354046223552,6.10395849960271,-8.87565599628778,23.1110280649856,-0.374014794826508,0.66447252035141,-0.0253347363322973
1.4354046223552,6.10395849960271,-8.87565599628778,23.1110280649856,-0.3746277987957,0.66588020324707,-0.0255227070301771
1.4354046223552,6.10395849960271,-8.87565599628778,23.1110280649856,-0.375238716602325,0.667285740375519,-0.0257111694663763
1.4354046223552,6.10395849960271,-8.87565599628778,23.1110280649856,-0.375847548246384,0.668689131736755,-0.0259001236408949
1.4354046223552,6.10395849960271,-8.87565599628778,23.1110280649856,-0.376454323530197,0.670090436935425,-0.0260895658284426
1.4354046223552,6.10395849960271,-8.87565599628778,23.1110280649856,-0.377059012651443,0.671489596366882,-0.0262794960290194
1.4354046223552,6.10395849960271,-8.87565599628778,23.1110280649856,-0.377661645412445,0.672886610031128,-0.0264699142426252
1.4354046223552,6.10395849960271,-8.87565599628778,23.1110280649856,-0.378262221813202,0.674281537532806,-0.0266608167439699
1.4354046223552,6.10395849960271,-8.87565599628778,23.1110280649856,-0.378860741853714,0.675674319267273,-0.0268522035330534
1.4354046223552,6.10395849960271,-8.87565599628778,23.1110280649856,-0.379457205533981,0.677065014839172,-0.0270440746098757
1.4354046223552,6.10395849960271,-8.87565599628778,23.1110280649856,-0.380051612854004,0.678453624248505,-0.0272364262491465
1.4354046223552,6.10395849960271,-8.87565599628778,23.1110280649856,-0.380643963813782,0.679840087890625,-0.0274292584508657
1.4354046223552,6.10395849960271,-8.87565599628778,23.1110280649856,-0.381234258413315,0.681224465370178,-0.0276225712150335
1.4354046223552,6.10395849960271,-8.87565599628778,23.1110280649856,-0.381822496652603,0.682606756687164,-0.0278163608163595
1.4354046223552,6.10395849960271,-8.87565599628778,23.1110280649856,-0.382408678531647,0.683986961841583,-0.0280106272548437
1.4354046223552,6.10395849960271,-8.87565599628778,23.1110280649856,-0.382992833852768,0.685365080833435,-0.0282053705304861
1.4354046223552,6.10395849960271,-8.87565599628778,23.1110280649856,-0.383574932813644,0.68674111366272,-0.0284005887806416
1.4354046223552,6.10395849960271,-8.87565599628778,23.1110280649856,-0.384155005216599,0.688115060329437,-0.0285962801426649
1.4354046223552,6.10395849960271,-8.87565599628778,23.1110280649856,-0.38473305106163,0.689486920833588,-0.028792442753911
1.4354046223552,6.10395849960271,-8.87565599628778,23.1110280649856,-0.38530907034874,0.690856695175171,-0.0289890766143799
1.4354046223552,6.10395849960271,-8.87565599628778,23.1110280649856,-0.385883033275604,0.692224383354187,-0.0291861798614264
1.4354046223552,6.10395849960271,-8.87565599628778,23.1110280649856,-0.386454969644547,0.693589985370636,-0.0293837506324053
1.4354046223552,6.10395849960271,-8.87565599628778,23.1110280649856,-0.387024879455566,0.694953501224518,-0.0295817889273167
1.4354046223552,6.10395849960271,-8.87565599628778,23.1110280649856,-0.387592792510986,0.696314930915833,-0.0297802928835154
1.4354046223552,6.10395849960271,-8.87565599628778,23.1110280649856,-0.388158679008484,0.697674334049225,-0.0299792606383562
1.4354046223552,6.10395849960271,-8.87565599628778,23.1110280649856,-0.388722538948059,0.69903165102005,-0.0301786921918392
1.4354046223552,6.10395849960271,-8.87565599628778,23.1110280649856,-0.389284372329712,0.700386941432953,-0.0303785856813192
1.4354046223552,6.10395849960271,-8.87565599628778,23.1110280649856,-0.389844208955765,0.701740145683289,-0.0305789411067963
1.4354046223552,6.10395849960271,-8.87565599628778,23.1110280649856,-0.390402019023895,0.703091263771057,-0.0307797566056252
1.4354046223552,6.10395849960271,-8.87565599628778,23.1110280649856,-0.390957832336426,0.704440355300903,-0.0309810303151608
1.4354046223552,6.10395849960271,-8.87565599628778,23.1110280649856,-0.391511648893356,0.705787420272827,-0.0311827603727579
1.4354046223552,6.10395849960271,-8.87565599628778,23.1110280649856,-0.392063468694687,0.707132399082184,-0.0313849486410618
1.4354046223552,6.10395849960271,-8.87565599628778,23.1110280649856,-0.392613261938095,0.708475351333618,-0.0315875895321369
1.4354046223552,6.10395849960271,-8.87565599628778,23.1110280649856,-0.393161058425903,0.70981627702713,-0.0317906849086285
1.4354046223552,6.10395849960271,-8.87565599628778,23.1110280649856,-0.393706858158112,0.711155116558075,-0.0319942310452461
1.4354046223552,6.10395849960271,-8.87565599628778,23.1110280649856,-0.394250690937042,0.712491929531097,-0.0321982316672802
1.4354046223552,6.10395849960271,-8.87565599628778,23.1110280649856,-0.394792526960373,0.713826715946198,-0.0324026793241501
1.4354046223552,6.10395849960271,-8.87565599628778,23.1110280649856,-0.395332366228104,0.715159475803375,-0.0326075777411461
1.4354046223552,6.10395849960271,-8.87565599628778,23.1110280649856,-0.395870238542557,0.716490209102631,-0.0328129231929779
1.4354046223552,6.10395849960271,-8.87565599628778,23.1110280649856,-0.39640611410141,0.717818915843964,-0.0330187156796455
1.4354046223552,6.10395849960271,-8.87565599628778,23.1110280649856,-0.396940022706985,0.719145596027374,-0.0332249514758587
1.4354046223552,6.10395849960271,-8.87565599628778,23.1110280649856,-0.397471934556961,0.720470249652863,-0.0334316343069077
1.4354046223552,6.10395849960271,-8.87565599628778,23.1110280649856,-0.398001879453659,0.721792876720428,-0.0336387567222118
1.4354046223552,6.10395849960271,-8.87565599628778,23.1110280649856,-0.398529857397079,0.723113536834717,-0.0338463224470615
1.4354046223552,6.10395849960271,-8.87565599628778,23.1110280649856,-0.399055868387222,0.724432170391083,-0.0340543277561665
1.4354046223552,6.10395849960271,-8.87565599628778,23.1110280649856,-0.399579912424088,0.725748777389526,-0.0342627726495266
1.4354046223552,6.10395849960271,-8.87565599628778,23.1110280649856,-0.400101989507675,0.727063417434692,-0.034471657127142
1.4354046223552,6.10395849960271,-8.87565599628778,23.1110280649856,-0.400622099637985,0.728376030921936,-0.0346809774637222
1.4354046223552,6.10395849960271,-8.87565599628778,23.1110280649856,-0.401140242815018,0.729686617851257,-0.0348907336592674
1.4354046223552,6.10395849960271,-8.87565599628778,23.1110280649856,-0.401656419038773,0.730995237827301,-0.0351009219884872
1.4354046223552,6.10395849960271,-8.87565599628778,23.1110280649856,-0.402170658111572,0.732301831245422,-0.035311546176672
1.4354046223552,6.10395849960271,-8.87565599628778,23.1110280649856,-0.402682930231094,0.733606457710266,-0.0355226024985313
1.4354046223552,6.10395849960271,-8.87565599628778,23.1110280649856,-0.403193265199661,0.734909117221832,-0.035734087228775
1.4354046223552,6.10395849960271,-8.87565599628778,23.1110280649856,-0.403701663017273,0.736209750175476,-0.0359460040926933
1.4354046223552,6.10395849960271,-8.87565599628778,23.1110280649856,-0.404208093881607,0.737508416175842,-0.036158349364996
1.4354046223552,6.10395849960271,-8.87565599628778,23.1110280649856,-0.404712587594986,0.738805115222931,-0.0363711193203926
1.4354046223552,6.10395849960271,-8.87565599628778,23.1110280649856,-0.40521514415741,0.740099847316742,-0.0365843176841736
1.4354046223552,6.10395849960271,-8.87565599628778,23.1110280649856,-0.405715763568878,0.741392552852631,-0.0367979407310486
1.4354046223552,6.10395849960271,-8.87565599628778,23.1110280649856,-0.406214445829391,0.742683291435242,-0.0370119884610176
1.4354046223552,6.10395849960271,-8.87565599628778,23.1110280649856,-0.40671119093895,0.743972063064575,-0.0372264571487904
1.4354046223552,6.10395849960271,-8.87565599628778,23.1110280649856,-0.407205998897552,0.745258867740631,-0.0374413467943668
1.4354046223552,6.10395849960271,-8.87565599628778,23.1110280649856,-0.407698899507523,0.746543705463409,-0.037656657397747
1.4354046223552,6.10395849960271,-8.87565599628778,23.1110280649856,-0.408189862966537,0.74782657623291,-0.0378723852336407
1.4354046223552,6.10395849960271,-8.87565599628778,23.1110280649856,-0.40867891907692,0.749107539653778,-0.038088534027338
1.4354046223552,6.10395849960271,-8.87565599628778,23.1110280649856,-0.409166038036346,0.750386536121368,-0.0383050963282585
1.4354046223552,6.10395849960271,-8.87565599628778,23.1110280649856,-0.409651249647141,0.751663565635681,-0.0385220758616924
1.4354046223552,6.10395849960271,-8.87565599628778,23.1110280649856,-0.410134553909302,0.752938628196716,-0.0387394689023495
1.4354046223552,6.10395849960271,-8.87565599628778,23.1110280649856,-0.410615921020508,0.754211783409119,-0.0389572754502296
1.4354046223552,6.10395849960271,-8.87565599628778,23.1110280649856,-0.411095380783081,0.755482971668243,-0.0391754955053329
1.4354046223552,6.10395849960271,-8.87565599628778,23.1110280649856,-0.411572933197021,0.756752192974091,-0.0393941253423691
1.4354046223552,6.10395849960271,-8.87565599628778,23.1110280649856,-0.412048578262329,0.758019506931305,-0.039613164961338
1.4354046223552,6.10395849960271,-8.87565599628778,23.1110280649856,-0.412522315979004,0.759284853935242,-0.0398326106369495
1.4354046223552,6.10395849960271,-8.87565599628778,23.1110280649856,-0.412994176149368,0.760548293590546,-0.0400524660944939
1.4354046223552,6.10395849960271,-8.87565599628778,23.1110280649856,-0.4134641289711,0.761809825897217,-0.0402727276086807
1.4354046223552,6.10395849960271,-8.87565599628778,23.1110280649856,-0.413932174444199,0.76306939125061,-0.0404933914542198
1.4354046223552,6.10395849960271,-8.87565599628778,23.1110280649856,-0.414398342370987,0.764327049255371,-0.0407144613564014
1.4354046223552,6.10395849960271,-8.87565599628778,23.1110280649856,-0.414862602949142,0.765582799911499,-0.0409359335899353
1.4354046223552,6.10395849960271,-8.87565599628778,23.1110280649856,-0.415324985980988,0.766836583614349,-0.0411578081548214
1.4354046223552,6.10395849960271,-8.87565599628778,23.1110280649856,-0.415785491466522,0.768088459968567,-0.0413800813257694
1.4354046223552,6.10395849960271,-8.87565599628778,23.1110280649856,-0.416244119405746,0.769338428974152,-0.0416027531027794
1.4354046223552,6.10395849960271,-8.87565599628778,23.1110280649856,-0.416700839996338,0.770586490631104,-0.0418258234858513
1.4354046223552,6.10395849960271,-8.87565599628778,23.1110280649856,-0.417155683040619,0.771832644939423,-0.0420492887496948
1.4354046223552,6.10395849960271,-8.87565599628778,23.1110280649856,-0.417608648538589,0.773076891899109,-0.0422731526196003
1.4354046223552,6.10395849960271,-8.87565599628778,23.1110280649856,-0.418059766292572,0.774319231510162,-0.0424974076449871
1.4354046223552,6.10395849960271,-8.87565599628778,23.1110280649856,-0.418509006500244,0.775559663772583,-0.0427220575511456
1.4354046223552,6.10395849960271,-8.87565599628778,23.1110280649856,-0.418956369161606,0.776798188686371,-0.0429470986127853
1.4354046223552,6.10395849960271,-8.87565599628778,23.1110280649856,-0.419401854276657,0.778034806251526,-0.0431725308299065
1.4354046223552,6.10395849960271,-8.87565599628778,23.1110280649856,-0.41984549164772,0.779269576072693,-0.0433983542025089
1.4354046223552,6.10395849960271,-8.87565599628778,23.1110280649856,-0.420287251472473,0.780502438545227,-0.0436245650053024
1.4354046223552,6.10395849960271,-8.87565599628778,23.1110280649856,-0.420727163553238,0.781733393669128,-0.043851163238287
1.4354046223552,6.10395849960271,-8.87565599628778,23.1110280649856,-0.421165227890015,0.782962501049042,-0.0440781489014626
1.4354046223552,6.10395849960271,-8.87565599628778,23.1110280649856,-0.421601444482803,0.784189701080322,-0.0443055182695389
1.4354046223552,6.10395849960271,-8.87565599628778,23.1110280649856,-0.422035783529282,0.785415053367615,-0.0445332713425159
1.4354046223552,6.10395849960271,-8.87565599628778,23.1110280649856,-0.422468274831772,0.786638498306274,-0.0447614081203938
1.4354046223552,6.10395849960271,-8.87565599628778,23.1110280649856,-0.422898918390274,0.787860095500946,-0.0449899286031723
1.4354046223552,6.10395849960271,-8.87565599628778,23.1110280649856,-0.423327714204788,0.789079785346985,-0.0452188290655613
1.4354046223552,6.10395849960271,-8.87565599628778,23.1110280649856,-0.423754692077637,0.790297627449036,-0.0454481095075607
1.4354046223552,6.10395849960271,-8.87565599628778,23.1110280649856,-0.424179822206497,0.791513562202454,-0.0456777662038803
1.4354046223552,6.10395849960271,-8.87565599628778,23.1110280649856,-0.42460310459137,0.792727649211884,-0.04590779915452
1.4354046223552,6.10395849960271,-8.87565599628778,23.1110280649856,-0.425024569034576,0.793939888477325,-0.0461382083594799
1.4354046223552,6.10395849960271,-8.87565599628778,23.1110280649856,-0.425444185733795,0.795150279998779,-0.0463689938187599
1.4354046223552,6.10395849960271,-8.87565599628778,23.1110280649856,-0.425861984491348,0.796358823776245,-0.0466001518070698
1.4354046223552,6.10395849960271,-8.87565599628778,23.1110280649856,-0.426277935504913,0.797565519809723,-0.0468316823244095
1.4354046223552,6.10395849960271,-8.87565599628778,23.1110280649856,-0.426692068576813,0.798770368099213,-0.047063585370779
1.4354046223552,6.10395849960271,-8.87565599628778,23.1110280649856,-0.427104383707047,0.799973368644714,-0.0472958572208881
1.4354046223552,6.10395849960271,-8.87565599628778,23.1110280649856,-0.427514880895615,0.801174521446228,-0.0475284978747368
1.4354046223552,6.10395849960271,-8.87565599628778,23.1110280649856,-0.427923560142517,0.802373826503754,-0.047761507332325
1.4354046223552,6.10395849960271,-8.87565599628778,23.1110280649856,-0.428330421447754,0.803571283817291,-0.0479948855936527
1.4354046223552,6.10395849960271,-8.87565599628778,23.1110280649856,-0.428735464811325,0.804766893386841,-0.0482286289334297
1.4354046223552,6.10395849960271,-8.87565599628778,23.1110280649856,-0.429138690233231,0.805960655212402,-0.048462737351656
1.4354046223552,6.10395849960271,-8.87565599628778,23.1110280649856,-0.429540127515793,0.807152628898621,-0.0486972071230412
1.4354046223552,6.10395849960271,-8.87565599628778,23.1110280649856,-0.429939746856689,0.808342754840851,-0.0489320419728756
1.4354046223552,6.10395849960271,-8.87565599628778,23.1110280649856,-0.43033754825592,0.809531033039093,-0.0491672344505787
1.4354046223552,6.10395849960271,-8.87565599628778,23.1110280649856,-0.430733561515808,0.810717523097992,-0.0494027882814407
1.4354046223552,6.10395849960271,-8.87565599628778,23.1110280649856,-0.431127786636353,0.811902165412903,-0.0496386997401714
1.4354046223552,6.10395849960271,-8.87565599628778,23.1110280649856,-0.431520193815231,0.81308501958847,-0.0498749725520611
1.4354046223552,6.10395849960271,-8.87565599628778,23.1110280649856,-0.431910812854767,0.81426602602005,-0.0501115992665291
1.4354046223552,6.10395849960271,-8.87565599628778,23.1110280649856,-0.432299643754959,0.815445244312286,-0.0503485836088657
1.4354046223552,6.10395849960271,-8.87565599628778,23.1110280649856,-0.432686686515808,0.816622614860535,-0.0505859218537807
1.4354046223552,6.10395849960271,-8.87565599628778,23.1110280649856,-0.433071941137314,0.81779819726944,-0.0508236140012741
1.4354046223552,6.10395849960271,-8.87565599628778,23.1110280649856,-0.433455407619476,0.818971991539001,-0.0510616563260555
1.4354046223552,6.10395849960271,-8.87565599628778,23.1110280649856,-0.433837085962296,0.820143938064575,-0.051300048828125
1.4354046223552,6.10395849960271,-8.87565599628778,23.1110280649856,-0.434217005968094,0.821314096450806,-0.0515387915074825
1.4354046223552,6.10395849960271,-8.87565599628778,23.1110280649856,-0.434595137834549,0.822482466697693,-0.0517778843641281
1.4354046223552,6.10395849960271,-8.87565599628778,23.1110280649856,-0.434971481561661,0.823649048805237,-0.0520173236727715
1.4354046223552,6.10395849960271,-8.87565599628778,23.1110280649856,-0.435346066951752,0.824813842773438,-0.0522571094334126
1.4354046223552,6.10395849960271,-8.87565599628778,23.1110280649856,-0.435718864202499,0.825976848602295,-0.0524972416460514
1.4354046223552,6.10395849960271,-8.87565599628778,23.1110280649856,-0.436089903116226,0.827138066291809,-0.052737720310688
1.4354046223552,6.10395849960271,-8.87565599628778,23.1110280649856,-0.436459183692932,0.82829749584198,-0.0529785417020321
1.4354046223552,6.10395849960271,-8.87565599628778,23.1110280649856,-0.436826705932617,0.829455137252808,-0.0532197058200836
1.4354046223552,6.10395849960271,-8.87565599628778,23.1110280649856,-0.437192440032959,0.830610990524292,-0.0534612089395523
1.4354046223552,6.10395849960271,-8.87565599628778,23.1110280649856,-0.43755641579628,0.831765055656433,-0.0537030510604382
1.4354046223552,6.10395849960271,-8.87565599628778,23.1110280649856,-0.437918663024902,0.832917392253876,-0.0539452321827412
1.4354046223552,6.10395849960271,-8.87565599628778,23.1110280649856,-0.438279151916504,0.834067940711975,-0.0541877523064613
1.4354046223552,6.10395849960271,-8.87565599628778,23.1110280649856,-0.438637882471085,0.835216701030731,-0.0544306077063084
1.4354046223552,6.10395849960271,-8.87565599628778,23.1110280649856,-0.438994854688644,0.836363732814789,-0.0546737983822823
1.4354046223552,6.10395849960271,-8.87565599628778,23.1110280649856,-0.439350098371506,0.837508976459503,-0.054917324334383
1.4354046223552,6.10395849960271,-8.87565599628778,23.1110280649856,-0.439703583717346,0.838652431964874,-0.0551611855626106
1.4354046223552,6.10395849960271,-8.87565599628778,23.1110280649856,-0.440055340528488,0.839794158935547,-0.0554053783416748
1.4354046223552,6.10395849960271,-8.87565599628778,23.1110280649856,-0.440405339002609,0.840934157371521,-0.0556499026715755
1.4354046223552,6.10395849960271,-8.87565599628778,23.1110280649856,-0.440753608942032,0.842072367668152,-0.0558947548270226
1.4354046223552,6.10395849960271,-8.87565599628778,23.1110280649856,-0.441100150346756,0.843208849430084,-0.0561399385333061
1.4354046223552,6.10395849960271,-8.87565599628778,23.1110280649856,-0.441444933414459,0.844343543052673,-0.056385450065136
1.4354046223552,6.10395849960271,-8.87565599628778,23.1110280649856,-0.441787987947464,0.845476508140564,-0.0566312856972218
1.4354046223552,6.10395849960271,-8.87565599628778,23.1110280649856,-0.44212931394577,0.846607744693756,-0.0568774491548538
1.4354046223552,6.10395849960271,-8.87565599628778,23.1110280649856,-0.442468911409378,0.84773725271225,-0.0571239367127419
1.4354046223552,6.10395849960271,-8.87565599628778,23.1110280649856,-0.44280681014061,0.848865032196045,-0.0573707483708858
1.4354046223552,6.10395849960271,-8.87565599628778,23.1110280649856,-0.443142980337143,0.849991023540497,-0.0576178804039955
1.4354046223552,6.10395849960271,-8.87565599628778,23.1110280649856,-0.443477421998978,0.85111528635025,-0.0578653328120708
1.4354046223552,6.10395849960271,-8.87565599628778,23.1110280649856,-0.443810135126114,0.852237820625305,-0.0581131055951118
1.4354046223552,6.10395849960271,-8.87565599628778,23.1110280649856,-0.444141149520874,0.853358626365662,-0.0583611987531185
1.4354046223552,6.10395849960271,-8.87565599628778,23.1110280649856,-0.444470435380936,0.854477763175964,-0.0586096085608006
1.4354046223552,6.10395849960271,-8.87565599628778,23.1110280649856,-0.444798022508621,0.855595171451569,-0.058858335018158
1.4354046223552,6.10395849960271,-8.87565599628778,23.1110280649856,-0.445123910903931,0.856710851192474,-0.0591073781251907
1.4354046223552,6.10395849960271,-8.87565599628778,23.1110280649856,-0.445448100566864,0.857824802398682,-0.0593567341566086
1.4354046223552,6.10395849960271,-8.87565599628778,23.1110280649856,-0.445770561695099,0.85893702507019,-0.0596064068377018
1.4354046223552,6.10395849960271,-8.87565599628778,23.1110280649856,-0.446091324090958,0.860047519207001,-0.0598563887178898
1.4354046223552,6.10395849960271,-8.87565599628778,23.1110280649856,-0.44641038775444,0.861156344413757,-0.0601066835224628
1.4354046223552,6.10395849960271,-8.87565599628778,23.1110280649856,-0.446727752685547,0.862263441085815,-0.0603572875261307
1.4354046223552,6.10395849960271,-8.87565599628778,23.1110280649856,-0.4470434486866,0.86336886882782,-0.0606082007288933
1.4354046223552,6.10395849960271,-8.87565599628778,23.1110280649856,-0.447357445955276,0.864472568035126,-0.0608594231307507
1.4354046223552,6.10395849960271,-8.87565599628778,23.1110280649856,-0.447669744491577,0.865574598312378,-0.0611109547317028
1.4354046223552,6.10395849960271,-8.87565599628778,23.1110280649856,-0.447980374097824,0.866674900054932,-0.0613627918064594
1.4354046223552,6.10395849960271,-8.87565599628778,23.1110280649856,-0.448289304971695,0.867773532867432,-0.0616149306297302
1.4354046223552,6.10395849960271,-8.87565599628778,23.1110280649856,-0.448596566915512,0.868870437145233,-0.0618673749268055
1.4354046223552,6.10395849960271,-8.87565599628778,23.1110280649856,-0.448902130126953,0.869965672492981,-0.0621201209723949
1.4354046223552,6.10395849960271,-8.87565599628778,23.1110280649856,-0.44920602440834,0.871059238910675,-0.0623731687664986
1.4354046223552,6.10395849960271,-8.87565599628778,23.1110280649856,-0.449508249759674,0.872151076793671,-0.0626265183091164
1.4354046223552,6.10395849960271,-8.87565599628778,23.1110280649856,-0.449808806180954,0.873241245746613,-0.062880165874958
1.4354046223552,6.10395849960271,-8.87565599628778,23.1110280649856,-0.450107663869858,0.874329745769501,-0.0631341114640236
1.4354046223552,6.10395849960271,-8.87565599628778,23.1110280649856,-0.450404852628708,0.875416576862335,-0.063388355076313
1.4354046223552,6.10395849960271,-8.87565599628778,23.1110280649856,-0.450700402259827,0.876501739025116,-0.0636428967118263
1.4354046223552,6.10395849960271,-8.87565599628778,23.1110280649856,-0.450994282960892,0.877585232257843,-0.0638977363705635
1.4354046223552,6.10395849960271,-8.87565599628778,23.1110280649856,-0.451286494731903,0.878667056560516,-0.064152866601944
1.4354046223552,6.10395849960271,-8.87565599628778,23.1110280649856,-0.451577037572861,0.879747211933136,-0.0644082874059677
1.4354046223552,6.10395849960271,-8.87565599628778,23.1110280649856,-0.451865941286087,0.880825698375702,-0.0646640062332153
1.4354046223552,6.10395849960271,-8.87565599628778,23.1110280649856,-0.45215317606926,0.881902515888214,-0.0649200156331062
1.4354046223552,6.10395849960271,-8.87565599628778,23.1110280649856,-0.452438771724701,0.882977664470673,-0.0651763156056404
1.4354046223552,6.10395849960271,-8.87565599628778,23.1110280649856,-0.452722698450089,0.884051203727722,-0.0654328987002373
1.4354046223552,6.10395849960271,-8.87565599628778,23.1110280649856,-0.453004986047745,0.885123074054718,-0.0656897723674774
1.4354046223552,6.10395849960271,-8.87565599628778,23.1110280649856,-0.45328563451767,0.88619327545166,-0.0659469291567802
1.4354046223552,6.10395849960271,-8.87565599628778,23.1110280649856,-0.453564643859863,0.887261807918549,-0.0662043765187263
1.4354046223552,6.10395849960271,-8.87565599628778,23.1110280649856,-0.453842014074326,0.888328731060028,-0.0664621070027351
1.4354046223552,6.10395849960271,-8.87565599628778,23.1110280649856,-0.454117715358734,0.889393985271454,-0.0667201206088066
1.4354046223552,6.10395849960271,-8.87565599628778,23.1110280649856,-0.454391807317734,0.890457630157471,-0.0669784173369408
1.4354046223552,6.10395849960271,-8.87565599628778,23.1110280649856,-0.454664260149002,0.891519606113434,-0.0672369971871376
1.4354046223552,6.10395849960271,-8.87565599628778,23.1110280649856,-0.454935073852539,0.892579972743988,-0.0674958527088165
1.4354046223552,6.10395849960271,-8.87565599628778,23.1110280649856,-0.455204248428345,0.893638670444489,-0.0677549913525581
1.4354046223552,6.10395849960271,-8.87565599628778,23.1110280649856,-0.455471813678741,0.89469575881958,-0.0680144056677818
1.4354046223552,6.10395849960271,-8.87565599628778,23.1110280649856,-0.455737739801407,0.895751237869263,-0.0682740956544876
1.4354046223552,6.10395849960271,-8.87565599628778,23.1110280649856,-0.456002056598663,0.896805107593536,-0.0685340613126755
1.4354046223552,6.10395849960271,-8.87565599628778,23.1110280649856,-0.456264734268188,0.897857308387756,-0.0687943026423454
1.4354046223552,6.10395849960271,-8.87565599628778,23.1110280649856,-0.456525802612305,0.898907899856567,-0.0690548196434975
1.4354046223552,6.10395849960271,-8.87565599628778,23.1110280649856,-0.456785261631012,0.899956881999969,-0.0693156123161316
1.4354046223552,6.10395849960271,-8.87565599628778,23.1110280649856,-0.457043081521988,0.901004254817963,-0.0695766732096672
1.4354046223552,6.10395849960271,-8.87565599628778,23.1110280649856,-0.457299292087555,0.902050018310547,-0.0698380097746849
1.4354046223552,6.10395849960271,-8.87565599628778,23.1110280649856,-0.457553893327713,0.903094172477722,-0.0700996145606041
1.4354046223552,6.10395849960271,-8.87565599628778,23.1110280649856,-0.457806885242462,0.904136717319489,-0.0703614875674248
1.4354046223552,6.10395849960271,-8.87565599628778,23.1110280649856,-0.458058297634125,0.905177652835846,-0.0706236287951469
1.4354046223552,6.10395849960271,-8.87565599628778,23.1110280649856,-0.458308100700378,0.906216979026794,-0.0708860382437706
1.4354046223552,6.10395849960271,-8.87565599628778,23.1110280649856,-0.458556294441223,0.907254695892334,-0.0711487084627151
1.4354046223552,6.10395849960271,-8.87565599628778,23.1110280649856,-0.458802878856659,0.908290803432465,-0.0714116469025612
1.4354046223552,6.10395849960271,-8.87565599628778,23.1110280649856,-0.459047883749008,0.909325361251831,-0.0716748461127281
1.4354046223552,6.10395849960271,-8.87565599628778,23.1110280649856,-0.459291279315948,0.910358309745789,-0.0719383060932159
1.4354046223552,6.10395849960271,-8.87565599628778,23.1110280649856,-0.459533095359802,0.911389648914337,-0.0722020342946053
1.4354046223552,6.10395849960271,-8.87565599628778,23.1110280649856,-0.459773331880569,0.912419378757477,-0.0724660232663155
1.4354046223552,6.10395849960271,-8.87565599628778,23.1110280649856,-0.460011959075928,0.913447558879852,-0.072730265557766
1.4354046223552,6.10395849960271,-8.87565599628778,23.1110280649856,-0.460249006748199,0.914474129676819,-0.0729947686195374
1.4354046223552,6.10395849960271,-8.87565599628778,23.1110280649856,-0.460484474897385,0.915499150753021,-0.0732595324516296
1.4354046223552,6.10395849960271,-8.87565599628778,23.1110280649856,-0.460718363523483,0.916522562503815,-0.0735245496034622
1.4354046223552,6.10395849960271,-8.87565599628778,23.1110280649856,-0.460950672626495,0.917544424533844,-0.0737898200750351
1.4354046223552,6.10395849960271,-8.87565599628778,23.1110280649856,-0.461181402206421,0.918564677238464,-0.0740553438663483
1.4354046223552,6.10395849960271,-8.87565599628778,23.1110280649856,-0.46141055226326,0.919583380222321,-0.0743211209774017
1.4354046223552,6.10395849960271,-8.87565599628778,23.1110280649856,-0.461638152599335,0.920600533485413,-0.0745871514081955
1.4354046223552,6.10395849960271,-8.87565599628778,23.1110280649856,-0.461864173412323,0.92161613702774,-0.0748534351587296
1.4354046223552,6.10395849960271,-8.87565599628778,23.1110280649856,-0.462088614702225,0.922630131244659,-0.0751199722290039
1.4354046223552,6.10395849960271,-8.87565599628778,23.1110280649856,-0.462311506271362,0.923642575740814,-0.075386755168438
1.4354046223552,6.10395849960271,-8.87565599628778,23.1110280649856,-0.462532818317413,0.924653470516205,-0.0756537839770317
1.4354046223552,6.10395849960271,-8.87565599628778,23.1110280649856,-0.4627525806427,0.925662815570831,-0.0759210586547852
1.4354046223552,6.10395849960271,-8.87565599628778,23.1110280649856,-0.462970793247223,0.926670610904694,-0.0761885792016983
1.4354046223552,6.10395849960271,-8.87565599628778,23.1110280649856,-0.463187426328659,0.927676856517792,-0.0764563456177711
1.4354046223552,6.10395849960271,-8.87565599628778,23.1110280649856,-0.463402509689331,0.928681552410126,-0.0767243579030037
1.4354046223552,6.10395849960271,-8.87565599628778,23.1110280649856,-0.463616043329239,0.929684698581696,-0.0769926160573959
1.4354046223552,6.10395849960271,-8.87565599628778,23.1110280649856,-0.463828027248383,0.930686295032501,-0.0772611126303673
1.4354046223552,6.10395849960271,-8.87565599628778,23.1110280649856,-0.464038461446762,0.931686341762543,-0.0775298550724983
1.4354046223552,6.10395849960271,-8.87565599628778,23.1110280649856,-0.464247345924377,0.93268483877182,-0.0777988359332085
1.4354046223552,6.10395849960271,-8.87565599628778,23.1110280649856,-0.464454710483551,0.933681786060333,-0.0780680552124977
1.4354046223552,6.10395849960271,-8.87565599628778,23.1110280649856,-0.46466052532196,0.934677243232727,-0.0783375129103661
1.4354046223552,6.10395849960271,-8.87565599628778,23.1110280649856,-0.464864790439606,0.935671150684357,-0.0786072090268135
1.4354046223552,6.10395849960271,-8.87565599628778,23.1110280649856,-0.465067535638809,0.936663508415222,-0.0788771361112595
1.4354046223552,6.10395849960271,-8.87565599628778,23.1110280649856,-0.465268731117249,0.937654376029968,-0.0791473016142845
1.4354046223552,6.10395849960271,-8.87565599628778,23.1110280649856,-0.465468406677246,0.93864369392395,-0.0794176980853081
1.4354046223552,6.10395849960271,-8.87565599628778,23.1110280649856,-0.465666532516479,0.939631521701813,-0.0796883255243301
1.4354046223552,6.10395849960271,-8.87565599628778,23.1110280649856,-0.465863138437271,0.940617799758911,-0.0799591839313507
1.4354046223552,6.10395849960271,-8.87565599628778,23.1110280649856,-0.466058224439621,0.94160258769989,-0.0802302733063698
1.4354046223552,6.10395849960271,-8.87565599628778,23.1110280649856,-0.466251790523529,0.942585825920105,-0.0805015936493874
1.4354046223552,6.10395849960271,-8.87565599628778,23.1110280649856,-0.466443836688995,0.9435675740242,-0.0807731449604034
1.4354046223552,6.10395849960271,-8.87565599628778,23.1110280649856,-0.46663436293602,0.944547832012177,-0.081044927239418
1.4354046223552,6.10395849960271,-8.87565599628778,23.1110280649856,-0.466823369264603,0.945526540279388,-0.0813169330358505
1.4354046223552,6.10395849960271,-8.87565599628778,23.1110280649856,-0.467010855674744,0.946503758430481,-0.0815891623497009
1.4354046223552,6.10395849960271,-8.87565599628778,23.1110280649856,-0.467196822166443,0.947479486465454,-0.0818616226315498
1.4354046223552,6.10395849960271,-8.87565599628778,23.1110280649856,-0.4673812687397,0.948453724384308,-0.0821343064308167
1.4354046223552,6.10395849960271,-8.87565599628778,23.1110280649856,-0.467564225196838,0.949426412582397,-0.0824072062969208
1.4354046223552,6.10395849960271,-8.87565599628778,23.1110280649856,-0.467745661735535,0.950397610664368,-0.0826803296804428
1.4354046223552,6.10395849960271,-8.87565599628778,23.1110280649856,-0.467925608158112,0.951367318630219,-0.0829536765813828
1.4354046223552,6.10395849960271,-8.87565599628778,23.1110280649856,-0.468104034662247,0.95233553647995,-0.08322723954916
1.4354046223552,6.10395849960271,-8.87565599628778,23.1110280649856,-0.468280971050262,0.953302264213562,-0.0835010260343552
1.4354046223552,6.10395849960271,-8.87565599628778,23.1110280649856,-0.468456417322159,0.954267501831055,-0.0837750285863876
1.4354046223552,6.10395849960271,-8.87565599628778,23.1110280649856,-0.468630373477936,0.955231308937073,-0.0840492472052574
1.4354046223552,6.10395849960271,-8.87565599628778,23.1110280649856,-0.468802839517593,0.956193625926971,-0.0843236818909645
1.4354046223552,6.10395849960271,-8.87565599628778,23.1110280649856,-0.468973815441132,0.957154452800751,-0.0845983326435089
1.4354046223552,6.10395849960271,-8.87565599628778,23.1110280649856,-0.46914330124855,0.958113789558411,-0.0848731994628906
1.4354046223552,6.10395849960271,-8.87565599628778,23.1110280649856,-0.46931129693985,0.959071636199951,-0.0851482748985291
1.4354046223552,6.10395849960271,-8.87565599628778,23.1110280649856,-0.46947780251503,0.960028052330017,-0.0854235664010048
1.4354046223552,6.10395849960271,-8.87565599628778,23.1110280649856,-0.469642817974091,0.960982978343964,-0.0856990665197372
1.4354046223552,6.10395849960271,-8.87565599628778,23.1110280649856,-0.469806343317032,0.961936414241791,-0.0859747752547264
1.4354046223552,6.10395849960271,-8.87565599628778,23.1110280649856,-0.469968408346176,0.962888419628143,-0.0862506926059723
1.4354046223552,6.10395849960271,-8.87565599628778,23.1110280649856,-0.470128983259201,0.963838934898376,-0.0865268185734749
1.4354046223552,6.10395849960271,-8.87565599628778,23.1110280649856,-0.470288097858429,0.964788019657135,-0.0868031531572342
1.4354046223552,6.10395849960271,-8.87565599628778,23.1110280649856,-0.470445722341537,0.965735614299774,-0.0870796889066696
1.4354046223552,6.10395849960271,-8.87565599628778,23.1110280649856,-0.470601886510849,0.966681778430939,-0.0873564332723618
1.4354046223552,6.10395849960271,-8.87565599628778,23.1110280649856,-0.470756590366364,0.967626512050629,-0.08763337880373
1.4354046223552,6.10395849960271,-8.87565599628778,23.1110280649856,-0.470909833908081,0.968569755554199,-0.087910532951355
1.4354046223552,6.10395849960271,-8.87565599628778,23.1110280649856,-0.471061617136002,0.969511568546295,-0.0881878882646561
1.4354046223552,6.10395849960271,-8.87565599628778,23.1110280649856,-0.471211940050125,0.970451951026917,-0.0884654447436333
1.4354046223552,6.10395849960271,-8.87565599628778,23.1110280649856,-0.471360802650452,0.971390843391418,-0.088743194937706
1.4354046223552,6.10395849960271,-8.87565599628778,23.1110280649856,-0.471508204936981,0.972328305244446,-0.0890211462974548
1.4354046223552,6.10395849960271,-8.87565599628778,23.1110280649856,-0.471654146909714,0.973264336585999,-0.0892992988228798
1.4354046223552,6.10395849960271,-8.87565599628778,23.1110280649856,-0.471798628568649,0.974198937416077,-0.0895776450634003
1.4354046223552,6.10395849960271,-8.87565599628778,23.1110280649856,-0.471941649913788,0.97513210773468,-0.0898561924695969
1.4354046223552,6.10395849960271,-8.87565599628778,23.1110280649856,-0.472083240747452,0.976063847541809,-0.090134933590889
1.4354046223552,6.10395849960271,-8.87565599628778,23.1110280649856,-0.472223371267319,0.976994156837463,-0.0904138684272766
1.4354046223552,6.10395849960271,-8.87565599628778,23.1110280649856,-0.472362071275711,0.977923035621643,-0.0906929969787598
1.4354046223552,6.10395849960271,-8.87565599628778,23.1110280649856,-0.472499310970306,0.978850483894348,-0.0909723117947578
1.4354046223552,6.10395849960271,-8.87565599628778,23.1110280649856,-0.472635120153427,0.979776501655579,-0.0912518203258514
1.4354046223552,6.10395849960271,-8.87565599628778,23.1110280649856,-0.472769498825073,0.980701148509979,-0.0915315225720406
1.4354046223552,6.10395849960271,-8.87565599628778,23.1110280649856,-0.472902446985245,0.981624364852905,-0.0918114110827446
1.4354046223552,6.10395849960271,-8.87565599628778,23.1110280649856,-0.473033964633942,0.982546150684357,-0.0920914858579636
1.4354046223552,6.10395849960271,-8.87565599628778,23.1110280649856,-0.473164021968842,0.983466506004334,-0.092371754348278
1.4354046223552,6.10395849960271,-8.87565599628778,23.1110280649856,-0.473292678594589,0.98438549041748,-0.0926522091031075
1.4354046223552,6.10395849960271,-8.87565599628778,23.1110280649856,-0.473419904708862,0.985303044319153,-0.0929328426718712
1.4354046223552,6.10395849960271,-8.87565599628778,23.1110280649856,-0.473545700311661,0.986219167709351,-0.0932136625051498
1.4354046223552,6.10395849960271,-8.87565599628778,23.1110280649856,-0.473670065402985,0.987133920192719,-0.0934946686029434
1.4354046223552,6.10395849960271,-8.87565599628778,23.1110280649856,-0.473792999982834,0.988047242164612,-0.0937758535146713
1.4354046223552,6.10395849960271,-8.87565599628778,23.1110280649856,-0.473914533853531,0.988959193229675,-0.0940572246909142
1.4354046223552,6.10395849960271,-8.87565599628778,23.1110280649856,-0.474034637212753,0.989869713783264,-0.0943387746810913
1.4354046223552,6.10395849960271,-8.87565599628778,23.1110280649856,-0.474153339862823,0.990778863430023,-0.0946205034852028
1.4354046223552,6.10395849960271,-8.87565599628778,23.1110280649856,-0.474270612001419,0.991686642169952,-0.0949024111032486
1.4354046223552,6.10395849960271,-8.87565599628778,23.1110280649856,-0.474386483430862,0.992592990398407,-0.0951844975352287
1.4354046223552,6.10395849960271,-8.87565599628778,23.1110280649856,-0.474500954151154,0.993497967720032,-0.0954667627811432
1.4354046223552,6.10395849960271,-8.87565599628778,23.1110280649856,-0.474614024162292,0.994401574134827,-0.0957491993904114
1.4354046223552,6.10395849960271,-8.87565599628778,23.1110280649856,-0.474725663661957,0.995303809642792,-0.0960318148136139
1.4354046223552,6.10395849960271,-8.87565599628778,23.1110280649856,-0.474835902452469,0.996204674243927,-0.0963146016001701
1.4354046223552,6.10395849960271,-8.87565599628778,23.1110280649856,-0.474944740533829,0.997104108333588,-0.0965975597500801
1.4354046223552,6.10395849960271,-8.87565599628778,23.1110280649856,-0.475052177906036,0.998002171516418,-0.0968806892633438
1.4354046223552,6.10395849960271,-8.87565599628778,23.1110280649856,-0.475158244371414,0.998898863792419,-0.0971639901399612
1.4354046223552,6.10395849960271,-8.87565599628778,23.1110280649856,-0.47526291012764,0.999794185161591,-0.0974474623799324
1.4354046223552,6.10395849960271,-8.87565599628778,23.1110280649856,-0.475366175174713,1.00068819522858,-0.0977311059832573
1.4354046223552,6.10395849960271,-8.87565599628778,23.1110280649856,-0.475468039512634,1.00158083438873,-0.0980149134993553
1.4354046223552,6.10395849960271,-8.87565599628778,23.1110280649856,-0.475568532943726,1.00247204303741,-0.0982988923788071
1.4354046223552,6.10395849960271,-8.87565599628778,23.1110280649856,-0.475667625665665,1.00336194038391,-0.098583035171032
1.4354046223552,6.10395849960271,-8.87565599628778,23.1110280649856,-0.475765347480774,1.00425040721893,-0.09886734187603
1.4354046223552,6.10395849960271,-8.87565599628778,23.1110280649856,-0.475861698389053,1.00513756275177,-0.0991518199443817
1.4354046223552,6.10395849960271,-8.87565599628778,23.1110280649856,-0.475956648588181,1.00602340698242,-0.099436454474926
1.4354046223552,6.10395849960271,-8.87565599628778,23.1110280649856,-0.476050227880478,1.0069078207016,-0.0997212529182434
1.4354046223552,6.10395849960271,-8.87565599628778,23.1110280649856,-0.476142436265945,1.00779092311859,-0.100006215274334
1.4354046223552,6.10395849960271,-8.87565599628778,23.1110280649856,-0.476233273744583,1.0086727142334,-0.100291341543198
1.4354046223552,6.10395849960271,-8.87565599628778,23.1110280649856,-0.476322740316391,1.00955307483673,-0.100576624274254
1.4354046223552,6.10395849960271,-8.87565599628778,23.1110280649856,-0.476410835981369,1.01043212413788,-0.100862063467503
1.4354046223552,6.10395849960271,-8.87565599628778,23.1110280649856,-0.476497560739517,1.01130986213684,-0.101147666573524
1.4354046223552,6.10395849960271,-8.87565599628778,23.1110280649856,-0.476582914590836,1.01218628883362,-0.101433426141739
1.4354046223552,6.10395849960271,-8.87565599628778,23.1110280649856,-0.476666927337646,1.01306128501892,-0.101719342172146
1.4354046223552,6.10395849960271,-8.87565599628778,23.1110280649856,-0.476749569177628,1.01393496990204,-0.102005407214165
1.4354046223552,6.10395849960271,-8.87565599628778,23.1110280649856,-0.476830840110779,1.01480734348297,-0.102291628718376
1.4354046223552,6.10395849960271,-8.87565599628778,23.1110280649856,-0.476910769939423,1.01567840576172,-0.10257800668478
1.4354046223552,6.10395849960271,-8.87565599628778,23.1110280649856,-0.476989328861237,1.01654815673828,-0.102864533662796
1.4354046223552,6.10395849960271,-8.87565599628778,23.1110280649856,-0.477066546678543,1.01741659641266,-0.103151209652424
1.4354046223552,6.10395849960271,-8.87565599628778,23.1110280649856,-0.477142423391342,1.01828372478485,-0.103438042104244
1.4354046223552,6.10395849960271,-8.87565599628778,23.1110280649856,-0.477216929197311,1.01914942264557,-0.103725023567677
1.4354046223552,6.10395849960271,-8.87565599628778,23.1110280649856,-0.477290093898773,1.0200138092041,-0.104012154042721
1.4354046223552,6.10395849960271,-8.87565599628778,23.1110280649856,-0.477361917495728,1.02087688446045,-0.104299426078796
1.4354046223552,6.10395849960271,-8.87565599628778,23.1110280649856,-0.477432399988174,1.02173864841461,-0.104586847126484
1.4354046223552,6.10395849960271,-8.87565599628778,23.1110280649856,-0.477501541376114,1.02259910106659,-0.104874417185783
1.4354046223552,6.10395849960271,-8.87565599628778,23.1110280649856,-0.477569341659546,1.02345824241638,-0.105162128806114
1.4354046223552,6.10395849960271,-8.87565599628778,23.1110280649856,-0.47763580083847,1.02431607246399,-0.105449981987476
1.4354046223552,6.10395849960271,-8.87565599628778,23.1110280649856,-0.477700918912888,1.02517259120941,-0.10573798418045
1.4354046223552,6.10395849960271,-8.87565599628778,23.1110280649856,-0.47776472568512,1.02602791786194,-0.106026127934456
1.4354046223552,6.10395849960271,-8.87565599628778,23.1110280649856,-0.477827191352844,1.02688193321228,-0.106314413249493
1.4354046223552,6.10395849960271,-8.87565599628778,23.1110280649856,-0.477888345718384,1.02773463726044,-0.10660283267498
1.4354046223552,6.10395849960271,-8.87565599628778,23.1110280649856,-0.477948158979416,1.02858603000641,-0.106891393661499
1.4354046223552,6.10395849960271,-8.87565599628778,23.1110280649856,-0.478006660938263,1.0294361114502,-0.107180096209049
1.4354046223552,6.10395849960271,-8.87565599628778,23.1110280649856,-0.478063821792603,1.0302848815918,-0.10746893286705
1.4354046223552,6.10395849960271,-8.87565599628778,23.1110280649856,-0.478119671344757,1.03113234043121,-0.107757903635502
1.4354046223552,6.10395849960271,-8.87565599628778,23.1110280649856,-0.478174209594727,1.03197860717773,-0.108047015964985
1.4354046223552,6.10395849960271,-8.87565599628778,23.1110280649856,-0.478227436542511,1.03282356262207,-0.108336262404919
1.4354046223552,6.10395849960271,-8.87565599628778,23.1110280649856,-0.478279322385788,1.03366720676422,-0.108625642955303
1.4354046223552,6.10395849960271,-8.87565599628778,23.1110280649856,-0.47832989692688,1.03450953960419,-0.108915157616138
1.4354046223552,6.10395849960271,-8.87565599628778,23.1110280649856,-0.478379160165787,1.03535068035126,-0.109204798936844
1.4354046223552,6.10395849960271,-8.87565599628778,23.1110280649856,-0.478427141904831,1.03619050979614,-0.109494574368
1.4354046223552,6.10395849960271,-8.87565599628778,23.1110280649856,-0.47847381234169,1.03702902793884,-0.109784476459026
1.4354046223552,6.10395849960271,-8.87565599628778,23.1110280649856,-0.478519171476364,1.03786623477936,-0.110074512660503
1.4354046223552,6.10395849960271,-8.87565599628778,23.1110280649856,-0.478563219308853,1.03870224952698,-0.110364675521851
1.4354046223552,6.10395849960271,-8.87565599628778,23.1110280649856,-0.478605985641479,1.03953695297241,-0.110654965043068
1.4354046223552,6.10395849960271,-8.87565599628778,23.1110280649856,-0.478647440671921,1.04037046432495,-0.110945381224155
1.4354046223552,6.10395849960271,-8.87565599628778,23.1110280649856,-0.478687614202499,1.04120266437531,-0.111235924065113
1.4354046223552,6.10395849960271,-8.87565599628778,23.1110280649856,-0.478726476430893,1.04203355312347,-0.111526593565941
1.4354046223552,6.10395849960271,-8.87565599628778,23.1110280649856,-0.478764057159424,1.04286324977875,-0.111817382276058
1.4354046223552,6.10395849960271,-8.87565599628778,23.1110280649856,-0.478800356388092,1.04369163513184,-0.112108297646046
1.4354046223552,6.10395849960271,-8.87565599628778,23.1110280649856,-0.478835344314575,1.04451882839203,-0.112399332225323
1.4354046223552,6.10395849960271,-8.87565599628778,23.1110280649856,-0.478869050741196,1.04534471035004,-0.112690486013889
1.4354046223552,6.10395849960271,-8.87565599628778,23.1110280649856,-0.478901475667953,1.04616940021515,-0.112981759011745
1.4354046223552,6.10395849960271,-8.87565599628778,23.1110280649856,-0.478932619094849,1.04699277877808,-0.113273151218891
1.4354046223552,6.10395849960271,-8.87565599628778,23.1110280649856,-0.478962481021881,1.04781496524811,-0.113564662635326
1.4354046223552,6.10395849960271,-8.87565599628778,23.1110280649856,-0.478991061449051,1.04863595962524,-0.113856293261051
1.4354046223552,6.10395849960271,-8.87565599628778,23.1110280649856,-0.479018360376358,1.0494556427002,-0.114148043096066
1.4354046223552,6.10395849960271,-8.87565599628778,23.1110280649856,-0.479044407606125,1.05027413368225,-0.114439904689789
1.4354046223552,6.10395849960271,-8.87565599628778,23.1110280649856,-0.479069173336029,1.05109131336212,-0.114731885492802
1.4354046223552,6.10395849960271,-8.87565599628778,23.1110280649856,-0.479092657566071,1.0519073009491,-0.115023978054523
1.4354046223552,6.10395849960271,-8.87565599628778,23.1110280649856,-0.479114890098572,1.05272209644318,-0.115316182374954
1.4354046223552,6.10395849960271,-8.87565599628778,23.1110280649856,-0.47913584113121,1.05353558063507,-0.115608498454094
1.4354046223552,6.10395849960271,-8.87565599628778,23.1110280649856,-0.479155540466309,1.05434787273407,-0.115900926291943
1.4354046223552,6.10395849960271,-8.87565599628778,23.1110280649856,-0.479173958301544,1.05515897274017,-0.1161934658885
1.4354046223552,6.10395849960271,-8.87565599628778,23.1110280649856,-0.47919112443924,1.05596888065338,-0.116486117243767
1.4354046223552,6.10395849960271,-8.87565599628778,23.1110280649856,-0.479207038879395,1.0567774772644,-0.116778872907162
1.4354046223552,6.10395849960271,-8.87565599628778,23.1110280649856,-0.479221701622009,1.05758488178253,-0.117071740329266
1.4354046223552,6.10395849960271,-8.87565599628778,23.1110280649856,-0.479235112667084,1.05839109420776,-0.117364712059498
1.4354046223552,6.10395849960271,-8.87565599628778,23.1110280649856,-0.479247272014618,1.0591961145401,-0.117657788097858
1.4354046223552,6.10395849960271,-8.87565599628778,23.1110280649856,-0.479258179664612,1.05999982357025,-0.117950968444347
1.4354046223552,6.10395849960271,-8.87565599628778,23.1110280649856,-0.479267835617065,1.06080234050751,-0.118244253098965
1.4354046223552,6.10395849960271,-8.87565599628778,23.1110280649856,-0.479276239871979,1.06160366535187,-0.11853764206171
1.4354046223552,6.10395849960271,-8.87565599628778,23.1110280649856,-0.479283392429352,1.06240379810333,-0.118831135332584
1.4354046223552,6.10395849960271,-8.87565599628778,23.1110280649856,-0.479289323091507,1.0632027387619,-0.119124732911587
1.4354046223552,6.10395849960271,-8.87565599628778,23.1110280649856,-0.479294002056122,1.06400048732758,-0.119418427348137
1.4354046223552,6.10395849960271,-8.87565599628778,23.1110280649856,-0.479297429323196,1.06479704380035,-0.119712226092815
1.4354046223552,6.10395849960271,-8.87565599628778,23.1110280649856,-0.479299634695053,1.06559240818024,-0.120006121695042
1.4354046223552,6.10395849960271,-8.87565599628778,23.1110280649856,-0.47930058836937,1.06638658046722,-0.120300114154816
1.4354046223552,6.10395849960271,-8.87565599628778,23.1110280649856,-0.479300320148468,1.06717956066132,-0.120594203472137
1.4354046223552,6.10395849960271,-8.87565599628778,23.1110280649856,-0.479298830032349,1.06797134876251,-0.120888389647007
1.4354046223552,6.10395849960271,-8.87565599628778,23.1110280649856,-0.479296118021011,1.06876194477081,-0.121182672679424
1.4354046223552,6.10395849960271,-8.87565599628778,23.1110280649856,-0.479292154312134,1.06955134868622,-0.121477045118809
1.4354046223552,6.10395849960271,-8.87565599628778,23.1110280649856,-0.479286968708038,1.07033956050873,-0.121771514415741
1.4354046223552,6.10395849960271,-8.87565599628778,23.1110280649856,-0.479280561208725,1.07112658023834,-0.12206607311964
1.4354046223552,6.10395849960271,-8.87565599628778,23.1110280649856,-0.479272931814194,1.07191240787506,-0.122360728681087
1.4354046223552,6.10395849960271,-8.87565599628778,23.1110280649856,-0.47967317700386,1.07298409938812,-0.122129403054714
1.4354046223552,6.10395849960271,-8.87565599628778,23.1110280649856,-0.480890393257141,1.07462859153748,-0.120846018195152
1.4354046223552,6.10395849960271,-8.87565599628778,23.1110280649856,-0.482894778251648,1.07682776451111,-0.118519298732281
1.4354046223552,6.10395849960271,-8.87565599628778,23.1110280649856,-0.485656529664993,1.07956349849701,-0.115157961845398
1.4354046223552,6.10395849960271,-8.87565599628778,23.1110280649856,-0.489175647497177,1.08283579349518,-0.110762000083923
1.4354046223552,6.10395849960271,-8.87565599628778,23.1110280649856,-0.493452161550522,1.08664464950562,-0.105331420898438
1.4354046223552,6.10395849960271,-8.87565599628778,23.1110280649856,-0.498486042022705,1.09098994731903,-0.0988662242889404
1.4354046223552,6.10395849960271,-8.87565599628778,23.1110280649856,-0.504301309585571,1.09582829475403,-0.0913918316364288
1.4354046223552,6.10395849960271,-8.87565599628778,23.1110280649856,-0.510921895503998,1.10111594200134,-0.0829336792230606
1.4354046223552,6.10395849960271,-8.87565599628778,23.1110280649856,-0.518347859382629,1.10685288906097,-0.0734917670488358
1.4354046223552,6.10395849960271,-8.87565599628778,23.1110280649856,-0.526579141616821,1.11303925514221,-0.0630660951137543
1.4354046223552,6.10395849960271,-8.87565599628778,23.1110280649856,-0.535615801811218,1.11967492103577,-0.0516566596925259
1.4354046223552,6.10395849960271,-8.87565599628778,23.1110280649856,-0.545430183410645,1.12671780586243,-0.0392838045954704
1.4354046223552,6.10395849960271,-8.87565599628778,23.1110280649856,-0.555994689464569,1.13412570953369,-0.0259678792208433
1.4354046223552,6.10395849960271,-8.87565599628778,23.1110280649856,-0.567309319972992,1.14189875125885,-0.0117088798433542
1.4354046223552,6.10395849960271,-8.87565599628778,23.1110280649856,-0.579374134540558,1.15003681182861,0.00349319539964199
1.4354046223552,6.10395849960271,-8.87565599628778,23.1110280649856,-0.592189073562622,1.15854001045227,0.0196383465081453
1.4354046223552,6.10395849960271,-8.87565599628778,23.1110280649856,-0.605724334716797,1.16731667518616,0.0366510078310966
1.4354046223552,6.10395849960271,-8.87565599628778,23.1110280649856,-0.619950175285339,1.17627537250519,0.0544556081295013
1.4354046223552,6.10395849960271,-8.87565599628778,23.1110280649856,-0.634866535663605,1.18541598320007,0.0730521455407143
1.4354046223552,6.10395849960271,-8.87565599628778,23.1110280649856,-0.650473475456238,1.1947386264801,0.092440627515316
1.4354046223552,6.10395849960271,-8.87565599628778,23.1110280649856,-0.666361927986145,1.20395612716675,0.112094976007938
1.4354046223552,6.10395849960271,-8.87565599628778,23.1110280649856,-0.682094395160675,1.21272277832031,0.131454974412918
1.4354046223552,6.10395849960271,-8.87565599628778,23.1110280649856,-0.697672367095947,1.22099781036377,0.150495186448097
1.4354046223552,6.10395849960271,-8.87565599628778,23.1110280649856,-0.713125646114349,1.22879946231842,0.169224336743355
1.4354046223552,6.10395849960271,-8.87565599628778,23.1110280649856,-0.728454232215881,1.23612761497498,0.187642425298691
1.4354046223552,6.10395849960271,-8.87565599628778,23.1110280649856,-0.743658125400543,1.24298238754272,0.205749452114105
1.4354046223552,6.10395849960271,-8.87565599628778,23.1110280649856,-0.758677780628204,1.24925982952118,0.22352434694767
1.4354046223552,6.10395849960271,-8.87565599628778,23.1110280649856,-0.773429572582245,1.25489962100983,0.240971475839615
1.4354046223552,6.10395849960271,-8.87565599628778,23.1110280649856,-0.787889540195465,1.25994539260864,0.258116245269775
1.4354046223552,6.10395849960271,-8.87565599628778,23.1110280649856,-0.802057683467865,1.26439714431763,0.274958699941635
1.4354046223552,6.10395849960271,-8.87565599628778,23.1110280649856,-0.815934062004089,1.26825487613678,0.291498810052872
1.4354046223552,6.10395849960271,-8.87565599628778,23.1110280649856,-0.829450309276581,1.27147054672241,0.307684242725372
1.4354046223552,6.10395849960271,-8.87565599628778,23.1110280649856,-0.842565774917603,1.27403843402863,0.323483049869537
1.4354046223552,6.10395849960271,-8.87565599628778,23.1110280649856,-0.855308055877686,1.27600073814392,0.338915586471558
1.4354046223552,6.10395849960271,-8.87565599628778,23.1110280649856,-0.86767715215683,1.27735733985901,0.353981852531433
1.4354046223552,6.10395849960271,-8.87565599628778,23.1110280649856,-0.879673063755035,1.27810823917389,0.368681848049164
1.4354046223552,6.10395849960271,-8.87565599628778,23.1110280649856,-0.891205668449402,1.27820706367493,0.382926911115646
1.4354046223552,6.10395849960271,-8.87565599628778,23.1110280649856,-0.902214705944061,1.27769875526428,0.396703958511353
1.4354046223552,6.10395849960271,-8.87565599628778,23.1110280649856,-0.912729978561401,1.27667486667633,0.41008859872818
1.4354046223552,6.10395849960271,-8.87565599628778,23.1110280649856,-0.922751426696777,1.27513551712036,0.423080801963806
1.4354046223552,6.10395849960271,-8.87565599628778,23.1110280649856,-0.932279109954834,1.27308058738708,0.435680568218231
1.4354046223552,6.10395849960271,-8.87565599628778,23.1110280649856,-0.941312253475189,1.27050721645355,0.44783341884613
1.4354046223552,6.10395849960271,-8.87565599628778,23.1110280649856,-0.949878513813019,1.26747131347656,0.459518998861313
1.4354046223552,6.10395849960271,-8.87565599628778,23.1110280649856,-0.958006203174591,1.26403188705444,0.470771431922913
1.4354046223552,6.10395849960271,-8.87565599628778,23.1110280649856,-0.965695321559906,1.26018881797791,0.481590747833252
1.4354046223552,6.10395849960271,-8.87565599628778,23.1110280649856,-0.972945928573608,1.25594210624695,0.491976946592331
1.4354046223552,6.10395849960271,-8.87565599628778,23.1110280649856,-0.97972309589386,1.25136148929596,0.501930773258209
1.4354046223552,6.10395849960271,-8.87565599628778,23.1110280649856,-0.986051499843597,1.24662065505981,0.511474013328552
1.4354046223552,6.10395849960271,-8.87565599628778,23.1110280649856,-0.991990804672241,1.241823554039,0.520627737045288
1.4354046223552,6.10395849960271,-8.87565599628778,23.1110280649856,-0.997540950775146,1.23697018623352,0.529391944408417
1.4354046223552,6.10395849960271,-8.87565599628778,23.1110280649856,-1.00270199775696,1.23206043243408,0.537766635417938
1.4354046223552,6.10395849960271,-8.87565599628778,23.1110280649856,-1.00744259357452,1.22712790966034,0.545740187168121
1.4354046223552,6.10395849960271,-8.87565599628778,23.1110280649856,-1.01179993152618,1.22225379943848,0.553353250026703
1.4354046223552,6.10395849960271,-8.87565599628778,23.1110280649856,-1.01584219932556,1.21748626232147,0.56065821647644
1.4354046223552,6.10395849960271,-8.87565599628778,23.1110280649856,-1.01956951618195,1.21282517910004,0.567655026912689
1.4354046223552,6.10395849960271,-8.87565599628778,23.1110280649856,-1.02298176288605,1.20827054977417,0.574343740940094
1.4354046223552,6.10395849960271,-8.87565599628778,23.1110280649856,-1.02606308460236,1.20383906364441,0.580675601959229
1.4354046223552,6.10395849960271,-8.87565599628778,23.1110280649856,-1.02888751029968,1.19959402084351,0.586690664291382
1.4354046223552,6.10395849960271,-8.87565599628778,23.1110280649856,-1.03154516220093,1.19558191299438,0.59247750043869
1.4354046223552,6.10395849960271,-8.87565599628778,23.1110280649856,-1.03403604030609,1.19180274009705,0.598036110401154
1.4354046223552,6.10395849960271,-8.87565599628778,23.1110280649856,-1.03636014461517,1.18825650215149,0.603366553783417
1.4354046223552,6.10395849960271,-8.87565599628778,23.1110280649856,-1.03853702545166,1.18499982357025,0.608428835868835
1.4354046223552,6.10395849960271,-8.87565599628778,23.1110280649856,-1.04058718681335,1.18209230899811,0.613237500190735
1.4354046223552,6.10395849960271,-8.87565599628778,23.1110280649856,-1.0425112247467,1.1795369386673,0.61784702539444
1.4354046223552,6.10395849960271,-8.87565599628778,23.1110280649856,-1.04430913925171,1.17733359336853,0.62225741147995
1.4354046223552,6.10395849960271,-8.87565599628778,23.1110280649856,-1.04598104953766,1.1754823923111,0.626468658447266
1.4354046223552,6.10395849960271,-8.87565599628778,23.1110280649856,-1.04752326011658,1.17395281791687,0.630426287651062
1.4354046223552,6.10395849960271,-8.87565599628778,23.1110280649856,-1.04896700382233,1.17264449596405,0.634075045585632
1.4354046223552,6.10395849960271,-8.87565599628778,23.1110280649856,-1.05034708976746,1.17148780822754,0.637414276599884
1.4354046223552,6.10395849960271,-8.87565599628778,23.1110280649856,-1.05166363716125,1.17048263549805,0.640443921089172
1.4354046223552,6.10395849960271,-8.87565599628778,23.1110280649856,-1.05291664600372,1.16962897777557,0.643163979053497
1.4354046223552,6.10395849960271,-8.87565599628778,23.1110280649856,-1.05409157276154,1.16890943050385,0.645556330680847
1.4354046223552,6.10395849960271,-8.87565599628778,23.1110280649856,-1.05520510673523,1.16827321052551,0.647614359855652
1.4354046223552,6.10395849960271,-8.87565599628778,23.1110280649856,-1.05628848075867,1.16768682003021,0.649349749088287
1.4354046223552,6.10395849960271,-8.87565599628778,23.1110280649856,-1.05734169483185,1.16715025901794,0.650762498378754
1.4354046223552,6.10395849960271,-8.87565599628778,23.1110280649856,-1.05836474895477,1.16666352748871,0.651852607727051
1.4354046223552,6.10395849960271,-8.87565599628778,23.1110280649856,-1.05930030345917,1.16619467735291,0.652645528316498
1.4354046223552,6.10395849960271,-8.87565599628778,23.1110280649856,-1.06010687351227,1.1656950712204,0.653215348720551
1.4354046223552,6.10395849960271,-8.87565599628778,23.1110280649856,-1.06080043315887,1.16514790058136,0.653610706329346
1.4354046223552,6.10395849960271,-8.87565599628778,23.1110280649856,-1.06138110160828,1.16455316543579,0.653831660747528
1.4354046223552,6.10395849960271,-8.87565599628778,23.1110280649856,-1.06184875965118,1.16391098499298,0.653878211975098
1.4354046223552,6.10395849960271,-8.87565599628778,23.1110280649856,-1.06222891807556,1.16322922706604,0.653716206550598
1.4354046223552,6.10395849960271,-8.87565599628778,23.1110280649856,-1.06252729892731,1.16245937347412,0.653351426124573
1.4354046223552,6.10395849960271,-8.87565599628778,23.1110280649856,-1.06272435188293,1.16154456138611,0.652823865413666
1.4354046223552,6.10395849960271,-8.87565599628778,23.1110280649856,-1.06282007694244,1.16048491001129,0.652133524417877
1.4354046223552,6.10395849960271,-8.87565599628778,23.1110280649856,-1.06281447410583,1.15928041934967,0.651280403137207
1.4354046223552,6.10395849960271,-8.87565599628778,23.1110280649856,-1.06271624565125,1.15795648097992,0.650363326072693
1.4354046223552,6.10395849960271,-8.87565599628778,23.1110280649856,-1.06253778934479,1.15656900405884,0.649535596370697
1.4354046223552,6.10395849960271,-8.87565599628778,23.1110280649856,-1.06228268146515,1.15514862537384,0.648851752281189
1.4354046223552,6.10395849960271,-8.87565599628778,23.1110280649856,-1.06195104122162,1.15369522571564,0.648311734199524
1.4354046223552,6.10395849960271,-8.87565599628778,23.1110280649856,-1.06154274940491,1.15220892429352,0.647915601730347
1.4354046223552,6.10395849960271,-8.87565599628778,23.1110280649856,-1.06105268001556,1.15074336528778,0.647657513618469
1.4354046223552,6.10395849960271,-8.87565599628778,23.1110280649856,-1.06049036979675,1.14936983585358,0.64754980802536
1.4354046223552,6.10395849960271,-8.87565599628778,23.1110280649856,-1.0598703622818,1.14810574054718,0.647610664367676
1.4354046223552,6.10395849960271,-8.87565599628778,23.1110280649856,-1.0591926574707,1.14695119857788,0.647840082645416
1.4354046223552,6.10395849960271,-8.87565599628778,23.1110280649856,-1.05845725536346,1.14590609073639,0.648238062858582
1.4354046223552,6.10395849960271,-8.87565599628778,23.1110280649856,-1.05767428874969,1.14494860172272,0.648824214935303
1.4354046223552,6.10395849960271,-8.87565599628778,23.1110280649856,-1.05691134929657,1.14408898353577,0.649592757225037
1.4354046223552,6.10395849960271,-8.87565599628778,23.1110280649856,-1.05622589588165,1.14335918426514,0.650518238544464
1.4354046223552,6.10395849960271,-8.87565599628778,23.1110280649856,-1.05561780929565,1.14275920391083,0.651600658893585
1.4354046223552,6.10395849960271,-8.87565599628778,23.1110280649856,-1.05508720874786,1.14228904247284,0.6528400182724
1.4354046223552,6.10395849960271,-8.87565599628778,23.1110280649856,-1.05463624000549,1.14190876483917,0.65423995256424
1.4354046223552,6.10395849960271,-8.87565599628778,23.1110280649856,-1.05424165725708,1.14157032966614,0.655838251113892
1.4354046223552,6.10395849960271,-8.87565599628778,23.1110280649856,-1.05387794971466,1.14126586914063,0.657669067382813
1.4354046223552,6.10395849960271,-8.87565599628778,23.1110280649856,-1.05354523658752,1.14099526405334,0.659732401371002
1.4354046223552,6.10395849960271,-8.87565599628778,23.1110280649856,-1.05324351787567,1.14075863361359,0.662028253078461
1.4354046223552,6.10395849960271,-8.87565599628778,23.1110280649856,-1.05298137664795,1.14054942131042,0.664516627788544
1.4354046223552,6.10395849960271,-8.87565599628778,23.1110280649856,-1.05275893211365,1.14033555984497,0.667058765888214
1.4354046223552,6.10395849960271,-8.87565599628778,23.1110280649856,-1.05256748199463,1.14009165763855,0.669555902481079
1.4354046223552,6.10395849960271,-8.87565599628778,23.1110280649856,-1.05240702629089,1.13981783390045,0.672007977962494
1.4354046223552,6.10395849960271,-8.87565599628778,23.1110280649856,-1.05227744579315,1.13951396942139,0.674414992332459
1.4354046223552,6.10395849960271,-8.87565599628778,23.1110280649856,-1.05217814445496,1.13923454284668,0.676826357841492
1.4354046223552,6.10395849960271,-8.87565599628778,23.1110280649856,-1.05211341381073,1.13898038864136,0.6792973279953
1.4354046223552,6.10395849960271,-8.87565599628778,23.1110280649856,-1.05208837985992,1.13869762420654,0.681833684444427
1.4354046223552,6.10395849960271,-8.87565599628778,23.1110280649856,-1.05210304260254,1.13838636875153,0.684435427188873
1.4354046223552,6.10395849960271,-8.87565599628778,23.1110280649856,-1.05215740203857,1.13804650306702,0.687102556228638
1.4354046223552,6.10395849960271,-8.87565599628778,23.1110280649856,-1.05228269100189,1.13773036003113,0.689803838729858
1.4354046223552,6.10395849960271,-8.87565599628778,23.1110280649856,-1.05250000953674,1.13751220703125,0.692488431930542
1.4354046223552,6.10395849960271,-8.87565599628778,23.1110280649856,-1.05279910564423,1.13741374015808,0.695136725902557
1.4354046223552,6.10395849960271,-8.87565599628778,23.1110280649856,-1.05318009853363,1.13743495941162,0.69774866104126
1.4354046223552,6.10395849960271,-8.87565599628778,23.1110280649856,-1.05364286899567,1.13757586479187,0.700324296951294
1.4354046223552,6.10395849960271,-8.87565599628778,23.1110280649856,-1.05418682098389,1.13779425621033,0.702918827533722
1.4354046223552,6.10395849960271,-8.87565599628778,23.1110280649856,-1.05480897426605,1.13808798789978,0.705583870410919
1.4354046223552,6.10395849960271,-8.87565599628778,23.1110280649856,-1.05550706386566,1.13849711418152,0.70831573009491
1.4354046223552,6.10395849960271,-8.87565599628778,23.1110280649856,-1.056281208992,1.13902151584625,0.711114466190338
1.4354046223552,6.10395849960271,-8.87565599628778,23.1110280649856,-1.05713140964508,1.13966131210327,0.713980078697205
1.4354046223552,6.10395849960271,-8.87565599628778,23.1110280649856,-1.05807435512543,1.14047086238861,0.716961205005646
1.4354046223552,6.10395849960271,-8.87565599628778,23.1110280649856,-1.05911803245544,1.14151132106781,0.720146536827087
1.4354046223552,6.10395849960271,-8.87565599628778,23.1110280649856,-1.06025373935699,1.14278924465179,0.723576009273529
1.4354046223552,6.10395849960271,-8.87565599628778,23.1110280649856,-1.06148147583008,1.14430451393127,0.727249681949615
1.4354046223552,6.10395849960271,-8.87565599628778,23.1110280649856,-1.06280124187469,1.14605724811554,0.731167495250702
1.4354046223552,6.10395849960271,-8.87565599628778,23.1110280649856,-1.06421744823456,1.14802706241608,0.735333800315857
1.4354046223552,6.10395849960271,-8.87565599628778,23.1110280649856,-1.06573510169983,1.15013909339905,0.739703595638275
1.4354046223552,6.10395849960271,-8.87565599628778,23.1110280649856,-1.06735491752625,1.15233886241913,0.744227468967438
1.4354046223552,6.10395849960271,-8.87565599628778,23.1110280649856,-1.0690770149231,1.15462636947632,0.748905420303345
1.4354046223552,6.10395849960271,-8.87565599628778,23.1110280649856,-1.07090127468109,1.15700161457062,0.753737390041351
1.4354046223552,6.10395849960271,-8.87565599628778,23.1110280649856,-1.07285606861115,1.15946173667908,0.758712530136108
1.4354046223552,6.10395849960271,-8.87565599628778,23.1110280649856,-1.07493853569031,1.16195142269135,0.763851165771484
1.4354046223552,6.10395849960271,-8.87565599628778,23.1110280649856,-1.07711744308472,1.1644184589386,0.769184589385986
1.4354046223552,6.10395849960271,-8.87565599628778,23.1110280649856,-1.07939279079437,1.16686284542084,0.774712741374969
1.4354046223552,6.10395849960271,-8.87565599628778,23.1110280649856,-1.08176445960999,1.16928446292877,0.780435681343079
1.4354046223552,6.10395849960271,-8.87565599628778,23.1110280649856,-1.08420860767365,1.17169511318207,0.786335945129395
1.4354046223552,6.10395849960271,-8.87565599628778,23.1110280649856,-1.0867018699646,1.17414844036102,0.792340874671936
1.4354046223552,6.10395849960271,-8.87565599628778,23.1110280649856,-1.08924508094788,1.17668664455414,0.798395216464996
1.4354046223552,6.10395849960271,-8.87565599628778,23.1110280649856,-1.09183824062347,1.17930960655212,0.804498970508575
1.4354046223552,6.10395849960271,-8.87565599628778,23.1110280649856,-1.0944812297821,1.18201744556427,0.810652196407318
1.4354046223552,6.10395849960271,-8.87565599628778,23.1110280649856,-1.09715890884399,1.1847448348999,0.816851198673248
1.4354046223552,6.10395849960271,-8.87565599628778,23.1110280649856,-1.09983932971954,1.18737173080444,0.823043704032898
1.4354046223552,6.10395849960271,-8.87565599628778,23.1110280649856,-1.10250568389893,1.18984377384186,0.829181015491486
1.4354046223552,6.10395849960271,-8.87565599628778,23.1110280649856,-1.10515797138214,1.19216084480286,0.835263133049011
1.4354046223552,6.10395849960271,-8.87565599628778,23.1110280649856,-1.10779631137848,1.19432306289673,0.841290056705475
1.4354046223552,6.10395849960271,-8.87565599628778,23.1110280649856,-1.11045622825623,1.19627070426941,0.847128093242645
1.4354046223552,6.10395849960271,-8.87565599628778,23.1110280649856,-1.11316895484924,1.19796466827393,0.852639198303223
1.4354046223552,6.10395849960271,-8.87565599628778,23.1110280649856,-1.11593019962311,1.1994252204895,0.857818961143494
1.4354046223552,6.10395849960271,-8.87565599628778,23.1110280649856,-1.11873984336853,1.20065236091614,0.862667441368103
1.4354046223552,6.10395849960271,-8.87565599628778,23.1110280649856,-1.1215980052948,1.20164608955383,0.867184638977051
1.4354046223552,6.10395849960271,-8.87565599628778,23.1110280649856,-1.1244421005249,1.20239126682281,0.871292054653168
1.4354046223552,6.10395849960271,-8.87565599628778,23.1110280649856,-1.12718141078949,1.20287537574768,0.874922096729279
1.4354046223552,6.10395849960271,-8.87565599628778,23.1110280649856,-1.12978756427765,1.20310139656067,0.878085672855377
1.4354046223552,6.10395849960271,-8.87565599628778,23.1110280649856,-1.13226056098938,1.20306932926178,0.880782783031464
1.4354046223552,6.10395849960271,-8.87565599628778,23.1110280649856,-1.13460028171539,1.20277917385101,0.883013486862183
1.4354046223552,6.10395849960271,-8.87565599628778,23.1110280649856,-1.1367894411087,1.20214092731476,0.884663641452789
1.81799060418501,5.89670276637997,-9.47669814346298,21.844187575005,-1.13883459568024,1.20105278491974,0.885636627674103
2.25840737000022,5.7626117656813,-10.11459550875,20.424760878467,-1.1407595872879,1.19950306415558,0.885949850082397
2.69831311268743,5.71645147079793,-10.8013109334378,18.9132488389358,-1.14256453514099,1.19749188423157,0.885603368282318
3.07400028228923,5.75329989063278,-11.5417987255346,17.3959679447144,-1.1442494392395,1.19501912593842,0.88459712266922
3.33990264989223,5.85173971257427,-12.322404328822,15.9782719045835,-1.14579391479492,1.19206666946411,0.882894098758698
3.47106525274572,5.9779821328749,-13.1143685894948,14.7701295110762,-1.1471928358078,1.18868172168732,0.880460858345032
3.47115042326705,6.09238516918527,-13.8723777147923,13.8675921947854,-1.1484614610672,1.184929728508,0.877301037311554
3.3701381849656,6.1611600177579,-14.5458010936036,13.3326030329476,-1.14959990978241,1.18081068992615,0.873414695262909
3.2152981771814,6.15903158917538,-15.0876332182384,13.1776371738305,-1.15060806274414,1.17632460594177,0.868801772594452
3.06071368096121,6.07442655302027,-15.4693566084528,13.3617357491334,-1.15144383907318,1.17144966125488,0.863428831100464
2.95637979232775,5.90894123072945,-15.68456691487,13.7943998509027,-1.15202951431274,1.16622364521027,0.857396185398102
2.93857915336906,5.67601132773008,-15.7580356775324,14.352969206287,-1.15232944488525,1.1607061624527,0.850837469100952
3.0257937672145,5.39040281731337,-15.7382184454984,14.9021641727995,-1.15234363079071,1.15489721298218,0.84375274181366
3.21580920030941,5.07353301209093,-15.6906087539048,15.3245885574936,-1.15207207202911,1.14879679679871,0.836142003536224
3.49227271255775,4.74296144786852,-15.6780417287125,15.5380361810332,-1.15154314041138,1.14239835739136,0.827984869480133
3.82741871400483,4.41012842827718,-15.7530813695239,15.5091919075819,-1.15084755420685,1.13571071624756,0.819339513778687
4.19058581697061,4.08860268553047,-15.9431576255566,15.2539921982216,-1.15004789829254,1.12874901294708,0.810284376144409
4.55324189680839,3.78583371966721,-16.2454912508546,14.8286833861823,-1.14914417266846,1.12151324748993,0.800819516181946
4.89290193588615,3.51246367359999,-16.6297522134636,14.3070347008158,-1.14813637733459,1.1140034198761,0.790944874286652
5.19380938775719,3.28006587774625,-17.0461557597374,13.761373157801,-1.14701437950134,1.10622835159302,0.780635058879852
5.44455140256283,3.10087879645547,-17.4402045015826,13.2435463386667,-1.14578545093536,1.09828674793243,0.769978702068329
5.63967706693774,2.98700786729072,-17.7658596255547,12.7695628151784,-1.14446687698364,1.09026885032654,0.759089887142181
5.77467234325124,2.94443929564035,-17.9994371226375,12.323341904887,-1.14305877685547,1.08217453956604,0.747968554496765
5.84706728638466,2.97064557256261,-18.1445620962517,11.8632757433389,-1.14156115055084,1.07400381565094,0.736614763736725
5.85583985008201,3.05219099263035,-18.2339813139658,11.3406896190852,-1.13995444774628,1.06578433513641,0.725000202655792
5.80414134363261,3.1661949485815,-18.3160294880574,10.7203214078316,-1.13823926448822,1.05756187438965,0.713133573532104
5.70244774116048,3.27886863666858,-18.4478624157953,9.9940226023281,-1.13643598556519,1.04935455322266,0.701051890850067
5.56583422494165,3.3546939049208,-18.6776939726765,9.19056536534243,-1.13454473018646,1.04116249084473,0.688755214214325
5.41959643981213,3.36240945853243,-19.0306582090856,8.37347920915103,-1.13256537914276,1.03298556804657,0.676243484020233
5.29294787458931,3.2811300920375,-19.5054259204349,7.62828740453697,-1.13045799732208,1.02484714984894,0.663574874401093
5.21552787069721,3.10753013577584,-20.0707003805245,7.04397453509747,-1.12822473049164,1.01679217815399,0.650840938091278
5.21246173192921,2.8573067505435,-20.6722258748225,6.6889015289121,-1.12590777873993,1.00884246826172,0.638075113296509
5.29754708274131,2.56411571330157,-21.2464422566834,6.59623930044983,-1.12350714206696,1.00099802017212,0.62527734041214
5.47052841156953,2.27145678320527,-21.7329311357601,6.75214259845405,-1.12102282047272,0.993258953094482,0.612447679042816
5.71403093206183,2.02429301406031,-22.0864995560727,7.09812965850227,-1.1184344291687,0.985663652420044,0.599585354328156
5.99730808601685,1.86399573643938,-22.2857594074381,7.5412498093977,-1.11569333076477,0.978257238864899,0.586710035800934
6.27871148850253,1.81424371832301,-22.3382025702596,7.97348124706527,-1.11277115345001,0.971046209335327,0.57384204864502
6.51574104937349,1.87822960258497,-22.2747632603949,8.29199413665114,-1.10966789722443,0.964030563831329,0.560981392860413
6.67109208028568,2.03892596056512,-22.1394260660169,8.41977426804035,-1.10638356208801,0.95721036195755,0.548128068447113
6.72227956360708,2.25855318492376,-21.9824590878946,8.31881931096084,-1.10290217399597,0.950650930404663,0.535375833511353
6.66453395014301,2.49361151650565,-21.8494177923498,7.99013881498339,-1.09921789169312,0.944409012794495,0.522843837738037
6.51122701174282,2.69421591040802,-21.771357232021,7.47411476293983,-1.09534096717834,0.938475847244263,0.510557472705841
6.29531974016255,2.82271978607757,-21.7659195768898,6.8360794341973,-1.09127140045166,0.932851433753967,0.498516768217087
6.06067495388893,2.85424713445613,-21.8339506844208,6.15088371836192,-1.08700919151306,0.927535831928253,0.486721754074097
5.85285888183533,2.78454109837865,-21.9665086328429,5.49071040974554,-1.08259928226471,0.922595083713531,0.475221812725067
5.71232752163516,2.6257071154082,-22.1510263969636,4.91685358943214,-1.07810640335083,0.918067753314972,0.464094698429108
5.66752782741377,2.40607989104957,-22.3719160320734,4.46803669453007,-1.0735502243042,0.913926243782043,0.453368753194809
5.72868026173118,2.15904914869101,-22.6180605543484,4.16719092243312,-1.06893074512482,0.910170495510101,0.443043977022171
5.88675674932604,1.91853671886642,-22.8822097569469,4.01900346757712,-1.06424784660339,0.90680056810379,0.433120369911194
6.11722818005433,1.7134094142262,-23.1556633916589,4.01489315861032,-1.05953586101532,0.903912365436554,0.423701822757721
6.38304537713599,1.56122677057612,-23.426700290757,4.1374813207783,-1.05486881732941,0.901578545570374,0.414834141731262
6.64230444407498,1.46797499330453,-23.6821492451455,4.35720257379349,-1.05028665065765,0.899775803089142,0.406459182500839
6.85718966939924,1.43006235917842,-23.8990512664924,4.63497292712941,-1.04578936100006,0.898504197597504,0.398576945066452
6.99857273481275,1.43618159135316,-24.0561390813955,4.91858424583921,-1.04137694835663,0.897763729095459,0.391187429428101
7.04916402448482,1.47582357370256,-24.1334746210401,5.14897788003139,-1.03713226318359,0.897619068622589,0.384297907352448
7.00538637651943,1.5358186543723,-24.1181283498918,5.26031677555336,-1.03315854072571,0.89809638261795,0.377916365861893
6.87635303669927,1.60791917260512,-24.0149337391786,5.19173951542292,-1.02947604656219,0.899157166481018,0.372043550014496
6.68148288388836,1.68560681586705,-23.8457622462061,4.90531588005162,-1.02608489990234,0.900801360607147,0.366679430007935
6.4454753692734,1.76622104842994,-23.6500066614808,4.39015715621159,-1.02298498153687,0.903029024600983,0.361824035644531
6.19439267238243,1.84563803991516,-23.4758808604998,3.67900159427005,-1.02020692825317,0.90584522485733,0.357557266950607
5.95446731378613,1.91853671886642,-23.3772780474529,2.84561842357867,-1.0177971124649,0.909189701080322,0.35386535525322
5.74929152789387,1.97600429059442,-23.3968536059255,1.99766889479439,-1.01577162742615,0.912997007369995,0.350654542446136
5.60254271963636,2.00992612112831,-23.557324850688,1.26242836452102,-1.01413035392761,0.917267143726349,0.347924828529358
