EOG_left_h,EOG_right_h,EOG_left_v,EOG_right_v,head_horizontal,head_frontal,head_sagittal
9.88436559213548,10.5792179957215,-4.599023614563,-13.3122257932897,0.0,0.0,0.0
9.88436559213548,10.5792179957215,-4.599023614563,-13.3122257932897,-0.000126672399346717,0.000166148442076519,0.000386129628168419
9.88436559213548,10.5792179957215,-4.599023614563,-13.3122257932897,-0.000252554717008024,0.000331551767885685,0.000771331950090826
9.88436559213548,10.5792179957215,-4.599023614563,-13.3122257932897,-0.000377647462300956,0.000496210413984954,0.00115560786798596
9.88436559213548,10.5792179957215,-4.599023614563,-13.3122257932897,-0.000501951086334884,0.000660124875139445,0.00153895828407258
9.88436559213548,10.5792179957215,-4.599023614563,-13.3122257932897,-0.000625465996563435,0.000823295558802783,0.00192138412967324
9.88436559213548,10.5792179957215,-4.599023614563,-13.3122257932897,-0.000748192775063217,0.000985722872428596,0.00230288645252585
9.88436559213548,10.5792179957215,-4.599023614563,-13.3122257932897,-0.000870131771080196,0.00114740722347051,0.00268346583470702
9.88436559213548,10.5792179957215,-4.599023614563,-13.3122257932897,-0.000991283566690981,0.00130834919400513,0.00306312344036996
9.88436559213548,10.5792179957215,-4.599023614563,-13.3122257932897,-0.00111164851114154,0.00146854901686311,0.00344186020083725
9.88436559213548,10.5792179957215,-4.599023614563,-13.3122257932897,-0.00123122718650848,0.00162800727412105,0.00381967704743147
9.88436559213548,10.5792179957215,-4.599023614563,-13.3122257932897,-0.00135001994203776,0.00178672443144023,0.00419657491147518
9.88436559213548,10.5792179957215,-4.599023614563,-13.3122257932897,-0.001468027359806,0.00194470083806664,0.00457255449146032
9.88436559213548,10.5792179957215,-4.599023614563,-13.3122257932897,-0.00158524978905916,0.00210193684324622,0.00494761671870947
9.88436559213548,10.5792179957215,-4.599023614563,-13.3122257932897,-0.00170168781187385,0.0022584330290556,0.00532176252454519
9.88436559213548,10.5792179957215,-4.599023614563,-13.3122257932897,-0.00181734189391136,0.00241418974474072,0.00569499284029007
9.88436559213548,10.5792179957215,-4.599023614563,-13.3122257932897,-0.00193221238441765,0.00256920768879354,0.00606730859726667
9.88436559213548,10.5792179957215,-4.599023614563,-13.3122257932897,-0.00204629986546934,0.00272348709404469,0.00643871072679758
9.88436559213548,10.5792179957215,-4.599023614563,-13.3122257932897,-0.0021596048027277,0.0028770281933248,0.00680920016020536
9.88436559213548,10.5792179957215,-4.599023614563,-13.3122257932897,-0.00227212742902339,0.00302983168512583,0.0071787778288126
9.88436559213548,10.5792179957215,-4.599023614563,-13.3122257932897,-0.00238386844284832,0.00318189803510904,0.00754744466394186
9.88436559213548,10.5792179957215,-4.599023614563,-13.3122257932897,-0.00249482830986381,0.00333322747610509,0.00791520159691572
9.88436559213548,10.5792179957215,-4.599023614563,-13.3122257932897,-0.00260500749573112,0.00348382070660591,0.00828204955905676
9.88436559213548,10.5792179957215,-4.599023614563,-13.3122257932897,-0.0027144062332809,0.00363367795944214,0.00864798948168755
9.88436559213548,10.5792179957215,-4.599023614563,-13.3122257932897,-0.00282302522100508,0.00378279970027506,0.00901302136480808
9.88436559213548,10.5792179957215,-4.599023614563,-13.3122257932897,-0.00293086492456496,0.00393118616193533,0.00937714707106352
9.88436559213548,10.5792179957215,-4.599023614563,-13.3122257932897,-0.00303792580962181,0.00407883804291487,0.00974036753177643
9.88436559213548,10.5792179957215,-4.599023614563,-13.3122257932897,-0.00314420834183693,0.00422575604170561,0.0101026836782694
9.88436559213548,10.5792179957215,-4.599023614563,-13.3122257932897,-0.00324971275404096,0.00437194015830755,0.010464096441865
9.88436559213548,10.5792179957215,-4.599023614563,-13.3122257932897,-0.00335443974472582,0.00451739085838199,0.0108246058225632
9.88436559213548,10.5792179957215,-4.599023614563,-13.3122257932897,-0.00345838977955282,0.0046621086075902,0.0111842136830091
9.88436559213548,10.5792179957215,-4.599023614563,-13.3122257932897,-0.00356156332418323,0.00480609387159348,0.0115429200232029
9.88436559213548,10.5792179957215,-4.599023614563,-13.3122257932897,-0.00366396061144769,0.0049493471160531,0.0119007267057896
9.88436559213548,10.5792179957215,-4.599023614563,-13.3122257932897,-0.00376558233983815,0.00509186880663037,0.0122576346620917
9.88436559213548,10.5792179957215,-4.599023614563,-13.3122257932897,-0.00386642897501588,0.00523365940898657,0.0126136438921094
9.88436559213548,10.5792179957215,-4.599023614563,-13.3122257932897,-0.00396650098264217,0.00537471938878298,0.0129687562584877
9.88436559213548,10.5792179957215,-4.599023614563,-13.3122257932897,-0.00406579859554768,0.00551504921168089,0.0133229717612267
9.88436559213548,10.5792179957215,-4.599023614563,-13.3122257932897,-0.00416432227939367,0.0056546488776803,0.0136762913316488
9.88436559213548,10.5792179957215,-4.599023614563,-13.3122257932897,-0.00426207296550274,0.00579351931810379,0.0140287168323994
9.88436559213548,10.5792179957215,-4.599023614563,-13.3122257932897,-0.00435905065387487,0.00593166053295136,0.0143802482634783
9.88436559213548,10.5792179957215,-4.599023614563,-13.3122257932897,-0.00445525581017137,0.00606907345354557,0.0147308865562081
9.88436559213548,10.5792179957215,-4.599023614563,-13.3122257932897,-0.00455068936571479,0.00620575807988644,0.0150806335732341
9.88436559213548,10.5792179957215,-4.599023614563,-13.3122257932897,-0.00464535132050514,0.00634171534329653,0.0154294893145561
9.88436559213548,10.5792179957215,-4.599023614563,-13.3122257932897,-0.00473924214020371,0.00647694524377584,0.0157774556428194
9.88436559213548,10.5792179957215,-4.599023614563,-13.3122257932897,-0.00483236229047179,0.00661144824698567,0.0161245316267014
9.88436559213548,10.5792179957215,-4.599023614563,-13.3122257932897,-0.00492471270263195,0.0067452248185873,0.0164707191288471
9.88436559213548,10.5792179957215,-4.599023614563,-13.3122257932897,-0.00501629337668419,0.00687827542424202,0.0168160200119019
9.88436559213548,10.5792179957215,-4.599023614563,-13.3122257932897,-0.00510710477828979,0.00701060052961111,0.0171604342758656
9.88436559213548,10.5792179957215,-4.599023614563,-13.3122257932897,-0.00519714737311006,0.00714220060035586,0.0175039619207382
9.88436559213548,10.5792179957215,-4.599023614563,-13.3122257932897,-0.00528642209246755,0.00727307610213757,0.017846604809165
9.88436559213548,10.5792179957215,-4.599023614563,-13.3122257932897,-0.00537492893636227,0.0074032275006175,0.018188364803791
9.88436559213548,10.5792179957215,-4.599023614563,-13.3122257932897,-0.0054626683704555,0.00753265479579568,0.0185292419046164
9.88436559213548,10.5792179957215,-4.599023614563,-13.3122257932897,-0.00554964086040854,0.00766135891899467,0.0188692361116409
9.88436559213548,10.5792179957215,-4.599023614563,-13.3122257932897,-0.00563584687188268,0.00778933987021446,0.0192083492875099
9.88436559213548,10.5792179957215,-4.599023614563,-13.3122257932897,-0.00572128687053919,0.00791659858077765,0.0195465814322233
9.88436559213548,10.5792179957215,-4.599023614563,-13.3122257932897,-0.00580596178770065,0.0080431355163455,0.0198839344084263
9.88436559213548,10.5792179957215,-4.599023614563,-13.3122257932897,-0.00588987162336707,0.00816895067691803,0.0202204082161188
9.88436559213548,10.5792179957215,-4.599023614563,-13.3122257932897,-0.00597301684319973,0.00829404406249523,0.0205560047179461
9.88436559213548,10.5792179957215,-4.599023614563,-13.3122257932897,-0.00605539791285992,0.00841841660439968,0.020890723913908
9.88436559213548,10.5792179957215,-4.599023614563,-13.3122257932897,-0.00613701529800892,0.00854206923395395,0.0212245676666498
9.88436559213548,10.5792179957215,-4.599023614563,-13.3122257932897,-0.00621786946430802,0.00866500195115805,0.0215575359761715
9.88436559213548,10.5792179957215,-4.599023614563,-13.3122257932897,-0.00629796087741852,0.00878721475601196,0.0218896307051182
9.88436559213548,10.5792179957215,-4.599023614563,-13.3122257932897,-0.00637729000300169,0.00890870857983828,0.0222208518534899
9.88436559213548,10.5792179957215,-4.599023614563,-13.3122257932897,-0.00645585730671883,0.00902948435395956,0.0225512012839317
9.88436559213548,10.5792179957215,-4.599023614563,-13.3122257932897,-0.00653366325423121,0.00914954114705324,0.0228806789964437
9.88436559213548,10.5792179957215,-4.599023614563,-13.3122257932897,-0.00661070831120014,0.00926888082176447,0.0232092868536711
9.88436559213548,10.5792179957215,-4.599023614563,-13.3122257932897,-0.0066869929432869,0.00938750337809324,0.0235370248556137
9.88436559213548,10.5792179957215,-4.599023614563,-13.3122257932897,-0.00676251761615276,0.00950540881603956,0.0238638930022717
9.88436559213548,10.5792179957215,-4.599023614563,-13.3122257932897,-0.00683728279545903,0.00962259713560343,0.0241898931562901
9.88436559213548,10.5792179957215,-4.599023614563,-13.3122257932897,-0.00691128894686699,0.00973907019942999,0.0245150271803141
9.88436559213548,10.5792179957215,-4.599023614563,-13.3122257932897,-0.00698453653603792,0.00985482707619667,0.0248392950743437
9.88436559213548,10.5792179957215,-4.599023614563,-13.3122257932897,-0.00705702602863312,0.00996986869722605,0.0251626968383789
9.88436559213548,10.5792179957215,-4.599023614563,-13.3122257932897,-0.00712875742465258,0.0100841959938407,0.0254852343350649
9.88436559213548,10.5792179957215,-4.599023614563,-13.3122257932897,-0.00719973165541887,0.0101978089660406,0.0258069075644016
9.88436559213548,10.5792179957215,-4.599023614563,-13.3122257932897,-0.00726994918659329,0.0103107076138258,0.0261277183890343
9.88436559213548,10.5792179957215,-4.599023614563,-13.3122257932897,-0.00733941048383713,0.0104228928685188,0.026447668671608
9.88436559213548,10.5792179957215,-4.599023614563,-13.3122257932897,-0.00740811601281166,0.0105343647301197,0.0267667565494776
9.88436559213548,10.5792179957215,-4.599023614563,-13.3122257932897,-0.00747606577351689,0.010645124129951,0.0270849857479334
9.88436559213548,10.5792179957215,-4.599023614563,-13.3122257932897,-0.0075432606972754,0.0107551710680127,0.0274023544043303
9.88436559213548,10.5792179957215,-4.599023614563,-13.3122257932897,-0.00760970124974847,0.0108645064756274,0.0277188662439585
9.88436559213548,10.5792179957215,-4.599023614563,-13.3122257932897,-0.0076753874309361,0.0109731303527951,0.0280345194041729
9.88436559213548,10.5792179957215,-4.599023614563,-13.3122257932897,-0.00774032017216086,0.0110810436308384,0.0283493157476187
9.88436559213548,10.5792179957215,-4.599023614563,-13.3122257932897,-0.00780449993908405,0.0111882463097572,0.028663257136941
9.88436559213548,10.5792179957215,-4.599023614563,-13.3122257932897,-0.00786792673170567,0.0112947393208742,0.0289763435721397
9.88436559213548,10.5792179957215,-4.599023614563,-13.3122257932897,-0.00793060101568699,0.0114005226641893,0.0292885769158602
9.88436559213548,10.5792179957215,-4.599023614563,-13.3122257932897,-0.0079925237223506,0.0115055963397026,0.0295999571681023
9.88436559213548,10.5792179957215,-4.599023614563,-13.3122257932897,-0.00805369485169649,0.0116099612787366,0.029910484328866
9.88436559213548,10.5792179957215,-4.599023614563,-13.3122257932897,-0.00811411533504725,0.0117136174812913,0.0302201602607965
9.88436559213548,10.5792179957215,-4.599023614563,-13.3122257932897,-0.00817378517240286,0.0118165658786893,0.030528986826539
9.88436559213548,10.5792179957215,-4.599023614563,-13.3122257932897,-0.00823270529508591,0.0119188074022532,0.0308369621634483
9.88436559213548,10.5792179957215,-4.599023614563,-13.3122257932897,-0.00829087570309639,0.0120203411206603,0.0311440899968147
9.88436559213548,10.5792179957215,-4.599023614563,-13.3122257932897,-0.00834829732775688,0.0121211688965559,0.0314503684639931
9.88436559213548,10.5792179957215,-4.599023614563,-13.3122257932897,-0.00840497016906738,0.0122212897986174,0.0317558012902737
9.88436559213548,10.5792179957215,-4.599023614563,-13.3122257932897,-0.00846089515835047,0.0123207047581673,0.0320603884756565
9.88436559213548,10.5792179957215,-4.599023614563,-13.3122257932897,-0.00851607229560614,0.0124194147065282,0.0323641300201416
9.88436559213548,10.5792179957215,-4.599023614563,-13.3122257932897,-0.00857050251215696,0.0125174196437001,0.0326670259237289
9.88436559213548,10.5792179957215,-4.599023614563,-13.3122257932897,-0.00862418580800295,0.0126147195696831,0.0329690799117088
9.88436559213548,10.5792179957215,-4.599023614563,-13.3122257932897,-0.00867712218314409,0.0127113154157996,0.0332702919840813
9.88436559213548,10.5792179957215,-4.599023614563,-13.3122257932897,-0.00872931350022554,0.0128072081133723,0.0335706621408463
9.88436559213548,10.5792179957215,-4.599023614563,-13.3122257932897,-0.00878075882792473,0.0129023976624012,0.0338701903820038
9.88436559213548,10.5792179957215,-4.599023614563,-13.3122257932897,-0.00883145909756422,0.0129968840628862,0.0341688804328442
9.88436559213548,10.5792179957215,-4.599023614563,-13.3122257932897,-0.00888141524046659,0.01309066824615,0.0344667285680771
9.88436559213548,10.5792179957215,-4.599023614563,-13.3122257932897,-0.00893062725663185,0.0131837502121925,0.0347637385129929
9.88436559213548,10.5792179957215,-4.599023614563,-13.3122257932897,-0.00897909514605999,0.0132761308923364,0.0350599102675915
9.88436559213548,10.5792179957215,-4.599023614563,-13.3122257932897,-0.00902681984007359,0.0133678102865815,0.0353552475571632
9.88436559213548,10.5792179957215,-4.599023614563,-13.3122257932897,-0.00907380226999521,0.013458788394928,0.0356497503817081
9.88436559213548,10.5792179957215,-4.599023614563,-13.3122257932897,-0.00912004243582487,0.0135490661486983,0.0359434187412262
9.88436559213548,10.5792179957215,-4.599023614563,-13.3122257932897,-0.00916554033756256,0.0136386444792151,0.0362362526357174
9.88436559213548,10.5792179957215,-4.599023614563,-13.3122257932897,-0.00921029690653086,0.0137275233864784,0.0365282520651817
9.88436559213548,10.5792179957215,-4.599023614563,-13.3122257932897,-0.00925431307405233,0.0138157028704882,0.0368194207549095
9.88436559213548,10.5792179957215,-4.599023614563,-13.3122257932897,-0.00929758790880442,0.0139031838625669,0.0371097549796104
9.88436559213548,10.5792179957215,-4.599023614563,-13.3122257932897,-0.00934012327343225,0.0139899663627148,0.0373992584645748
9.88436559213548,10.5792179957215,-4.599023614563,-13.3122257932897,-0.00938191916793585,0.0140760513022542,0.0376879349350929
9.88436559213548,10.5792179957215,-4.599023614563,-13.3122257932897,-0.0094229755923152,0.0141614386811852,0.0379757806658745
9.88436559213548,10.5792179957215,-4.599023614563,-13.3122257932897,-0.00946329347789288,0.0142461294308305,0.0382627993822098
9.88436559213548,10.5792179957215,-4.599023614563,-13.3122257932897,-0.00950287282466888,0.0143301235511899,0.0385489910840988
9.88436559213548,10.5792179957215,-4.599023614563,-13.3122257932897,-0.0095417145639658,0.0144134219735861,0.0388343557715416
9.88436559213548,10.5792179957215,-4.599023614563,-13.3122257932897,-0.00957981869578362,0.014496024698019,0.0391188971698284
9.88436559213548,10.5792179957215,-4.599023614563,-13.3122257932897,-0.00961718615144491,0.0145779317244887,0.039402611553669
9.88436559213548,10.5792179957215,-4.599023614563,-13.3122257932897,-0.00965381693094969,0.0146591439843178,0.0396855026483536
9.88436559213548,10.5792179957215,-4.599023614563,-13.3122257932897,-0.00968971196562052,0.0147396624088287,0.0399675704538822
9.88436559213548,10.5792179957215,-4.599023614563,-13.3122257932897,-0.0097248712554574,0.014819486066699,0.0402488186955452
9.88436559213548,10.5792179957215,-4.599023614563,-13.3122257932897,-0.00975929573178291,0.0148986168205738,0.0405292436480522
9.88436559213548,10.5792179957215,-4.599023614563,-13.3122257932897,-0.00979298539459705,0.0149770537391305,0.0408088490366936
9.88436559213548,10.5792179957215,-4.599023614563,-13.3122257932897,-0.0098259411752224,0.0150547986850142,0.0410876348614693
9.88436559213548,10.5792179957215,-4.599023614563,-13.3122257932897,-0.00985816307365894,0.0151318507269025,0.0413656011223793
9.88436559213548,10.5792179957215,-4.599023614563,-13.3122257932897,-0.00988965108990669,0.0152082107961178,0.041642751544714
9.88436559213548,10.5792179957215,-4.599023614563,-13.3122257932897,-0.00992040615528822,0.0152838798239827,0.0419190861284733
9.88436559213548,10.5792179957215,-4.599023614563,-13.3122257932897,-0.0099504292011261,0.0153588578104973,0.0421946048736572
9.88436559213548,10.5792179957215,-4.599023614563,-13.3122257932897,-0.00997972022742033,0.0154331447556615,0.0424693077802658
9.88436559213548,10.5792179957215,-4.599023614563,-13.3122257932897,-0.0100082801654935,0.0155067415907979,0.042743194848299
9.88436559213548,10.5792179957215,-4.599023614563,-13.3122257932897,-0.0100361090153456,0.0155796492472291,0.0430162698030472
9.88436559213548,10.5792179957215,-4.599023614563,-13.3122257932897,-0.0100632067769766,0.0156518667936325,0.0432885326445103
9.88436559213548,10.5792179957215,-4.599023614563,-13.3122257932897,-0.0100895743817091,0.0157233960926533,0.0435599833726883
9.88436559213548,10.5792179957215,-4.599023614563,-13.3122257932897,-0.0101152118295431,0.0157942362129688,0.0438306219875813
9.88436559213548,10.5792179957215,-4.599023614563,-13.3122257932897,-0.0101401200518012,0.0158643890172243,0.0441004522144794
9.88436559213548,10.5792179957215,-4.599023614563,-13.3122257932897,-0.0101642999798059,0.0159338526427746,0.0443694740533829
9.88436559213548,10.5792179957215,-4.599023614563,-13.3122257932897,-0.0101877516135573,0.0160026308149099,0.0446376875042915
9.88436559213548,10.5792179957215,-4.599023614563,-13.3122257932897,-0.0102104749530554,0.0160707216709852,0.0449050925672054
9.88436559213548,10.5792179957215,-4.599023614563,-13.3122257932897,-0.0102324709296227,0.0161381252110004,0.0451716892421246
9.88436559213548,10.5792179957215,-4.599023614563,-13.3122257932897,-0.0102537395432591,0.0162048432976007,0.0454374812543392
9.88436559213548,10.5792179957215,-4.599023614563,-13.3122257932897,-0.0102742817252874,0.0162708759307861,0.0457024686038494
9.88436559213548,10.5792179957215,-4.599023614563,-13.3122257932897,-0.0102940974757075,0.0163362231105566,0.0459666512906551
9.88436559213548,10.5792179957215,-4.599023614563,-13.3122257932897,-0.010313187725842,0.0164008848369122,0.0462300293147564
9.88436559213548,10.5792179957215,-4.599023614563,-13.3122257932897,-0.0103315524756908,0.0164648629724979,0.0464926064014435
9.88436559213548,10.5792179957215,-4.599023614563,-13.3122257932897,-0.0103491926565766,0.016528157517314,0.0467543825507164
9.88436559213548,10.5792179957215,-4.599023614563,-13.3122257932897,-0.0103661082684994,0.0165907684713602,0.0470153577625752
9.88436559213548,10.5792179957215,-4.599023614563,-13.3122257932897,-0.0103823002427816,0.0166526958346367,0.0472755320370197
9.88436559213548,10.5792179957215,-4.599023614563,-13.3122257932897,-0.0103977685794234,0.0167139414697886,0.0475349090993404
9.88436559213548,10.5792179957215,-4.599023614563,-13.3122257932897,-0.0104125132784247,0.0167745035141706,0.047793485224247
9.88436559213548,10.5792179957215,-4.599023614563,-13.3122257932897,-0.0104265352711082,0.0168343838304281,0.0480512641370296
9.88436559213548,10.5792179957215,-4.599023614563,-13.3122257932897,-0.0104398354887962,0.016893582418561,0.0483082458376884
9.88436559213548,10.5792179957215,-4.599023614563,-13.3122257932897,-0.010452413931489,0.0169521011412144,0.0485644340515137
9.88436559213548,10.5792179957215,-4.599023614563,-13.3122257932897,-0.0104642705991864,0.0170099381357431,0.048819825053215
9.88436559213548,10.5792179957215,-4.599023614563,-13.3122257932897,-0.0104754064232111,0.0170670952647924,0.0490744225680828
9.88436559213548,10.5792179957215,-4.599023614563,-13.3122257932897,-0.0104858223348856,0.0171235725283623,0.049328226596117
9.88436559213548,10.5792179957215,-4.599023614563,-13.3122257932897,-0.0104955183342099,0.0171793699264526,0.049581240862608
9.88436559213548,10.5792179957215,-4.599023614563,-13.3122257932897,-0.0105044944211841,0.0172344893217087,0.0498334616422653
9.88436559213548,10.5792179957215,-4.599023614563,-13.3122257932897,-0.0105127515271306,0.0172889307141304,0.0500848926603794
9.88436559213548,10.5792179957215,-4.599023614563,-13.3122257932897,-0.0105202896520495,0.0173426941037178,0.0503355339169502
9.88436559213548,10.5792179957215,-4.599023614563,-13.3122257932897,-0.0105271097272635,0.0173957794904709,0.0505853854119778
9.88436559213548,10.5792179957215,-4.599023614563,-13.3122257932897,-0.0105332117527723,0.0174481868743896,0.0508344508707523
9.88436559213548,10.5792179957215,-4.599023614563,-13.3122257932897,-0.0105385966598988,0.0174999181181192,0.0510827265679836
9.88436559213548,10.5792179957215,-4.599023614563,-13.3122257932897,-0.0105432644486427,0.0175509732216597,0.0513302162289619
9.88436559213548,10.5792179957215,-4.599023614563,-13.3122257932897,-0.0105472160503268,0.0176013521850109,0.0515769198536873
9.88436559213548,10.5792179957215,-4.599023614563,-13.3122257932897,-0.010550451464951,0.017651055008173,0.0518228374421597
9.88436559213548,10.5792179957215,-4.599023614563,-13.3122257932897,-0.0105529716238379,0.0177000816911459,0.0520679727196693
9.88436559213548,10.5792179957215,-4.599023614563,-13.3122257932897,-0.0105547765269876,0.0177484340965748,0.0523123256862164
9.88436559213548,10.5792179957215,-4.599023614563,-13.3122257932897,-0.0105558661743999,0.0177961122244596,0.0525558963418007
9.88436559213548,10.5792179957215,-4.599023614563,-13.3122257932897,-0.0105562414973974,0.0178431160748005,0.0527986846864223
9.88436559213548,10.5792179957215,-4.599023614563,-13.3122257932897,-0.0105559034273028,0.0178894475102425,0.0530406907200813
9.88436559213548,10.5792179957215,-4.599023614563,-13.3122257932897,-0.0105548519641161,0.0179351046681404,0.0532819181680679
9.88436559213548,10.5792179957215,-4.599023614563,-13.3122257932897,-0.0105530871078372,0.0179800894111395,0.0535223670303822
9.88436559213548,10.5792179957215,-4.599023614563,-13.3122257932897,-0.0105506097897887,0.0180244017392397,0.053762037307024
9.88436559213548,10.5792179957215,-4.599023614563,-13.3122257932897,-0.0105474209412932,0.018068041652441,0.0540009289979935
9.88436559213548,10.5792179957215,-4.599023614563,-13.3122257932897,-0.0105435205623508,0.0181110110133886,0.0542390458285809
9.88436559213548,10.5792179957215,-4.599023614563,-13.3122257932897,-0.0105389086529613,0.0181533079594374,0.0544763877987862
9.88436559213548,10.5792179957215,-4.599023614563,-13.3122257932897,-0.0105335861444473,0.0181949343532324,0.0547129549086094
9.88436559213548,10.5792179957215,-4.599023614563,-13.3122257932897,-0.010527553036809,0.0182358920574188,0.0549487471580505
9.88436559213548,10.5792179957215,-4.599023614563,-13.3122257932897,-0.0105208102613688,0.0182761792093515,0.0551837645471096
9.88436559213548,10.5792179957215,-4.599023614563,-13.3122257932897,-0.0105133578181267,0.0183157976716757,0.0554180108010769
9.88436559213548,10.5792179957215,-4.599023614563,-13.3122257932897,-0.0105051966384053,0.0183547455817461,0.0556514859199524
9.88436559213548,10.5792179957215,-4.599023614563,-13.3122257932897,-0.0104963267222047,0.0183930248022079,0.0558841899037361
9.88436559213548,10.5792179957215,-4.599023614563,-13.3122257932897,-0.0104867490008473,0.0184306371957064,0.0561161227524281
9.88436559213548,10.5792179957215,-4.599023614563,-13.3122257932897,-0.0104764634743333,0.0184675808995962,0.0563472881913185
9.88436559213548,10.5792179957215,-4.599023614563,-13.3122257932897,-0.0104654701426625,0.0185038577765226,0.0565776824951172
9.88436559213548,10.5792179957215,-4.599023614563,-13.3122257932897,-0.0104537699371576,0.0185394678264856,0.0568073093891144
9.88436559213548,10.5792179957215,-4.599023614563,-13.3122257932897,-0.0104413637891412,0.0185744110494852,0.0570361725986004
9.88436559213548,10.5792179957215,-4.599023614563,-13.3122257932897,-0.0104282516986132,0.0186086874455214,0.0572642683982849
9.88436559213548,10.5792179957215,-4.599023614563,-13.3122257932897,-0.0104144336655736,0.0186422988772392,0.0574916005134583
9.88436559213548,10.5792179957215,-4.599023614563,-13.3122257932897,-0.010399910621345,0.0186752453446388,0.0577181652188301
9.88436559213548,10.5792179957215,-4.599023614563,-13.3122257932897,-0.0103846834972501,0.0187075268477201,0.0579439699649811
9.88436559213548,10.5792179957215,-4.599023614563,-13.3122257932897,-0.0103687522932887,0.0187391433864832,0.0581690110266209
9.88436559213548,10.5792179957215,-4.599023614563,-13.3122257932897,-0.0103521170094609,0.018770094960928,0.0583932884037495
9.88436559213548,10.5792179957215,-4.599023614563,-13.3122257932897,-0.0103347785770893,0.0188003834336996,0.0586168058216572
9.88436559213548,10.5792179957215,-4.599023614563,-13.3122257932897,-0.0103167369961739,0.0188300088047981,0.058839563280344
9.88436559213548,10.5792179957215,-4.599023614563,-13.3122257932897,-0.0102979931980371,0.0188589710742235,0.05906156077981
9.88436559213548,10.5792179957215,-4.599023614563,-13.3122257932897,-0.0102785471826792,0.0188872702419758,0.0592828020453453
9.88436559213548,10.5792179957215,-4.599023614563,-13.3122257932897,-0.0102583998814225,0.0189149081707001,0.0595032833516598
9.88436559213548,10.5792179957215,-4.599023614563,-13.3122257932897,-0.0102375512942672,0.0189418848603964,0.0597230084240437
9.88436559213548,10.5792179957215,-4.599023614563,-13.3122257932897,-0.0102160014212132,0.0189682003110647,0.0599419772624969
9.88436559213548,10.5792179957215,-4.599023614563,-13.3122257932897,-0.010193751193583,0.0189938545227051,0.0601601898670197
9.88436559213548,10.5792179957215,-4.599023614563,-13.3122257932897,-0.0101708015426993,0.0190188474953175,0.0603776499629021
9.88436559213548,10.5792179957215,-4.599023614563,-13.3122257932897,-0.0101471524685621,0.019043181091547,0.0605943575501442
9.88436559213548,10.5792179957215,-4.599023614563,-13.3122257932897,-0.0101228039711714,0.0190668553113937,0.0608103089034557
9.88436559213548,10.5792179957215,-4.599023614563,-13.3122257932897,-0.0100977569818497,0.0190898701548576,0.0610255114734173
9.88436559213548,10.5792179957215,-4.599023614563,-13.3122257932897,-0.0100720124319196,0.0191122256219387,0.0612399615347385
9.88436559213548,10.5792179957215,-4.599023614563,-13.3122257932897,-0.0100455693900585,0.0191339235752821,0.0614536590874195
9.88436559213548,10.5792179957215,-4.599023614563,-13.3122257932897,-0.0100184297189116,0.0191549640148878,0.0616666078567505
9.88436559213548,10.5792179957215,-4.599023614563,-13.3122257932897,-0.00999059341847897,0.0191753469407558,0.0618788078427315
9.88436559213548,10.5792179957215,-4.599023614563,-13.3122257932897,-0.00996206048876047,0.0191950723528862,0.0620902627706528
9.88436559213548,10.5792179957215,-4.599023614563,-13.3122257932897,-0.00993283186107874,0.0192141402512789,0.0623009689152241
9.88436559213548,10.5792179957215,-4.599023614563,-13.3122257932897,-0.00990290753543377,0.019232552498579,0.0625109300017357
9.88436559213548,10.5792179957215,-4.599023614563,-13.3122257932897,-0.00987228751182556,0.0192503090947866,0.0627201423048973
9.88436559213548,10.5792179957215,-4.599023614563,-13.3122257932897,-0.00984097272157669,0.0192674100399017,0.0629286095499992
9.88436559213548,10.5792179957215,-4.599023614563,-13.3122257932897,-0.00980896409600973,0.0192838553339243,0.0631363317370415
9.88436559213548,10.5792179957215,-4.599023614563,-13.3122257932897,-0.00977626163512468,0.0192996449768543,0.0633433163166046
9.88436559213548,10.5792179957215,-4.599023614563,-13.3122257932897,-0.00974286627024412,0.019314780831337,0.0635495558381081
9.88436559213548,10.5792179957215,-4.599023614563,-13.3122257932897,-0.00970877707004547,0.0193292628973722,0.0637550577521324
9.88436559213548,10.5792179957215,-4.599023614563,-13.3122257932897,-0.00967399589717388,0.0193430911749601,0.0639598146080971
9.88436559213548,10.5792179957215,-4.599023614563,-13.3122257932897,-0.00963852275162935,0.0193562675267458,0.0641638338565826
9.88436559213548,10.5792179957215,-4.599023614563,-13.3122257932897,-0.00960235763341188,0.0193687900900841,0.0643671154975891
9.88436559213548,10.5792179957215,-4.599023614563,-13.3122257932897,-0.00956550147384405,0.0193806607276201,0.0645696595311165
9.88436559213548,10.5792179957215,-4.599023614563,-13.3122257932897,-0.00952795427292585,0.0193918794393539,0.0647714659571648
9.88436559213548,10.5792179957215,-4.599023614563,-13.3122257932897,-0.00948971696197987,0.0194024462252855,0.0649725347757339
9.88436559213548,10.5792179957215,-4.599023614563,-13.3122257932897,-0.00945078954100609,0.01941236294806,0.065172865986824
9.88436559213548,10.5792179957215,-4.599023614563,-13.3122257932897,-0.0094111729413271,0.0194216277450323,0.065372459590435
9.88436559213548,10.5792179957215,-4.599023614563,-13.3122257932897,-0.00937086716294289,0.0194302424788475,0.0655713230371475
9.88436559213548,10.5792179957215,-4.599023614563,-13.3122257932897,-0.00932987220585346,0.0194382071495056,0.0657694488763809
9.88436559213548,10.5792179957215,-4.599023614563,-13.3122257932897,-0.0092881890013814,0.0194455236196518,0.0659668445587158
9.88436559213548,10.5792179957215,-4.599023614563,-13.3122257932897,-0.00924581848084927,0.0194521900266409,0.0661635100841522
9.88436559213548,10.5792179957215,-4.599023614563,-13.3122257932897,-0.00920276064425707,0.0194582082331181,0.0663594454526901
9.88436559213548,10.5792179957215,-4.599023614563,-13.3122257932897,-0.00915901549160481,0.0194635782390833,0.0665546506643295
9.88436559213548,10.5792179957215,-4.599023614563,-13.3122257932897,-0.00911458395421505,0.0194683000445366,0.0667491257190704
9.88436559213548,10.5792179957215,-4.599023614563,-13.3122257932897,-0.0090694660320878,0.0194723755121231,0.0669428706169128
9.88436559213548,10.5792179957215,-4.599023614563,-13.3122257932897,-0.00902366265654564,0.0194758027791977,0.0671358853578568
9.88436559213548,10.5792179957215,-4.599023614563,-13.3122257932897,-0.00897717475891113,0.0194785837084055,0.0673281773924828
9.88436559213548,10.5792179957215,-4.599023614563,-13.3122257932897,-0.00893000140786171,0.0194807182997465,0.0675197392702103
9.88436559213548,10.5792179957215,-4.599023614563,-13.3122257932897,-0.00888214353471994,0.0194822065532207,0.0677105784416199
9.88436559213548,10.5792179957215,-4.599023614563,-13.3122257932897,-0.00883360207080841,0.0194830503314734,0.067900687456131
9.88436559213548,10.5792179957215,-4.599023614563,-13.3122257932897,-0.00878437701612711,0.0194832496345043,0.0680900737643242
9.88436559213548,10.5792179957215,-4.599023614563,-13.3122257932897,-0.00873446930199862,0.0194828044623137,0.0682787373661995
9.88436559213548,10.5792179957215,-4.599023614563,-13.3122257932897,-0.00868387892842293,0.0194817148149014,0.0684666782617569
9.88436559213548,10.5792179957215,-4.599023614563,-13.3122257932897,-0.00863260589540005,0.0194799806922674,0.0686538964509964
9.88436559213548,10.5792179957215,-4.599023614563,-13.3122257932897,-0.00858065113425255,0.019477603957057,0.0688403993844986
9.88436559213548,10.5792179957215,-4.599023614563,-13.3122257932897,-0.00852801464498043,0.0194745827466249,0.0690261796116829
9.88436559213548,10.5792179957215,-4.599023614563,-13.3122257932897,-0.00847469735890627,0.0194709189236164,0.0692112445831299
9.88436559213548,10.5792179957215,-4.599023614563,-13.3122257932897,-0.00842070020735264,0.0194666143506765,0.069395586848259
9.88436559213548,10.5792179957215,-4.599023614563,-13.3122257932897,-0.00836602225899696,0.0194616671651602,0.0695792138576508
9.88436559213548,10.5792179957215,-4.599023614563,-13.3122257932897,-0.00831066537648439,0.0194560792297125,0.0697621256113052
9.88436559213548,10.5792179957215,-4.599023614563,-13.3122257932897,-0.00825462862849236,0.0194498505443335,0.0699443221092224
9.88436559213548,10.5792179957215,-4.599023614563,-13.3122257932897,-0.00819791294634342,0.0194429811090231,0.0701258033514023
9.88436559213548,10.5792179957215,-4.599023614563,-13.3122257932897,-0.00814051926136017,0.0194354709237814,0.0703065693378448
9.88436559213548,10.5792179957215,-4.599023614563,-13.3122257932897,-0.00808244757354259,0.0194273218512535,0.0704866200685501
9.88436559213548,10.5792179957215,-4.599023614563,-13.3122257932897,-0.0080236978828907,0.0194185320287943,0.0706659555435181
9.88436559213548,10.5792179957215,-4.599023614563,-13.3122257932897,-0.00796427112072706,0.0194091033190489,0.0708445832133293
9.88436559213548,10.5792179957215,-4.599023614563,-13.3122257932897,-0.00790416821837425,0.0193990357220173,0.0710224956274033
9.88436559213548,10.5792179957215,-4.599023614563,-13.3122257932897,-0.00784338917583227,0.0193883311003447,0.0711997002363205
9.88436559213548,10.5792179957215,-4.599023614563,-13.3122257932897,-0.00778193399310112,0.0193769875913858,0.071376197040081
9.88436559213548,10.5792179957215,-4.599023614563,-13.3122257932897,-0.00771980360150337,0.019365007057786,0.0715519785881042
9.88436559213548,10.5792179957215,-4.599023614563,-13.3122257932897,-0.00765699800103903,0.0193523894995451,0.0717270523309708
9.88436559213548,10.5792179957215,-4.599023614563,-13.3122257932897,-0.00759351765736938,0.0193391349166632,0.0719014182686806
9.88436559213548,10.5792179957215,-4.599023614563,-13.3122257932897,-0.00752936350181699,0.0193252451717854,0.0720750838518143
9.88436559213548,10.5792179957215,-4.599023614563,-13.3122257932897,-0.00746453553438187,0.0193107184022665,0.0722480416297913
9.88436559213548,10.5792179957215,-4.599023614563,-13.3122257932897,-0.0073990342207253,0.0192955564707518,0.0724202916026115
9.88436559213548,10.5792179957215,-4.599023614563,-13.3122257932897,-0.00733286002650857,0.0192797593772411,0.0725918412208557
9.88436559213548,10.5792179957215,-4.599023614563,-13.3122257932897,-0.00726601341739297,0.0192633289843798,0.0727626830339432
9.88436559213548,10.5792179957215,-4.599023614563,-13.3122257932897,-0.00719849485903978,0.0192462634295225,0.0729328244924545
9.88436559213548,10.5792179957215,-4.599023614563,-13.3122257932897,-0.00713030435144901,0.0192285645753145,0.0731022655963898
9.88436559213548,10.5792179957215,-4.599023614563,-13.3122257932897,-0.00706144282594323,0.0192102324217558,0.0732710063457489
9.88436559213548,10.5792179957215,-4.599023614563,-13.3122257932897,-0.00699191074818373,0.0191912669688463,0.0734390467405319
9.88436559213548,10.5792179957215,-4.599023614563,-13.3122257932897,-0.0069217081181705,0.0191716682165861,0.0736063867807388
9.88436559213548,10.5792179957215,-4.599023614563,-13.3122257932897,-0.00685083540156484,0.0191514380276203,0.0737730264663696
9.88436559213548,10.5792179957215,-4.599023614563,-13.3122257932897,-0.00677929352968931,0.0191305764019489,0.0739389657974243
9.88436559213548,10.5792179957215,-4.599023614563,-13.3122257932897,-0.00670708250254393,0.019109083339572,0.0741042122244835
9.88436559213548,10.5792179957215,-4.599023614563,-13.3122257932897,-0.00663420278578997,0.0190869588404894,0.0742687582969666
9.88436559213548,10.5792179957215,-4.599023614563,-13.3122257932897,-0.00656065484508872,0.0190642047673464,0.0744326114654541
9.88436559213548,10.5792179957215,-4.599023614563,-13.3122257932897,-0.00648643914610147,0.0190408192574978,0.0745957717299461
9.88436559213548,10.5792179957215,-4.599023614563,-13.3122257932897,-0.00641155615448952,0.0190168041735888,0.0747582390904427
9.88436559213548,10.5792179957215,-4.599023614563,-13.3122257932897,-0.00633600587025285,0.0189921595156193,0.0749200060963631
9.88436559213548,10.5792179957215,-4.599023614563,-13.3122257932897,-0.00625978922471404,0.0189668852835894,0.0750810876488686
9.88436559213548,10.5792179957215,-4.599023614563,-13.3122257932897,-0.0061829062178731,0.0189409833401442,0.0752414762973785
9.88436559213548,10.5792179957215,-4.599023614563,-13.3122257932897,-0.00610535778105259,0.0189144536852837,0.075401172041893
9.88436559213548,10.5792179957215,-4.599023614563,-13.3122257932897,-0.00602714391425252,0.0188872963190079,0.075560174882412
9.88436559213548,10.5792179957215,-4.599023614563,-13.3122257932897,-0.00594826508313417,0.0188595112413168,0.075718492269516
9.88436559213548,10.5792179957215,-4.599023614563,-13.3122257932897,-0.00586872175335884,0.0188310984522104,0.0758761167526245
9.88436559213548,10.5792179957215,-4.599023614563,-13.3122257932897,-0.00578851439058781,0.0188020598143339,0.0760330557823181
9.88436559213548,10.5792179957215,-4.599023614563,-13.3122257932897,-0.00570764346048236,0.0187723934650421,0.0761893093585968
9.88436559213548,10.5792179957215,-4.599023614563,-13.3122257932897,-0.00562610942870378,0.0187421031296253,0.0763448774814606
9.88436559213548,10.5792179957215,-4.599023614563,-13.3122257932897,-0.00554391276091337,0.0187111869454384,0.0764997601509094
9.88436559213548,10.5792179957215,-4.599023614563,-13.3122257932897,-0.00546105345711112,0.0186796449124813,0.0766539573669434
9.88436559213548,10.5792179957215,-4.599023614563,-13.3122257932897,-0.0053775324486196,0.0186474788933992,0.0768074691295624
9.88436559213548,10.5792179957215,-4.599023614563,-13.3122257932897,-0.00529334973543882,0.0186146888881922,0.0769602954387665
9.88436559213548,10.5792179957215,-4.599023614563,-13.3122257932897,-0.00520850624889135,0.0185812748968601,0.0771124437451363
9.88436559213548,10.5792179957215,-4.599023614563,-13.3122257932897,-0.00512300198897719,0.0185472369194031,0.0772639065980911
9.88436559213548,10.5792179957215,-4.599023614563,-13.3122257932897,-0.00503683742135763,0.018512574955821,0.0774146914482117
9.88436559213548,10.5792179957215,-4.599023614563,-13.3122257932897,-0.00495001301169395,0.0184772908687592,0.0775647908449173
9.88436559213548,10.5792179957215,-4.599023614563,-13.3122257932897,-0.00486252922564745,0.0184413846582174,0.0777142122387886
9.88436559213548,10.5792179957215,-4.599023614563,-13.3122257932897,-0.00477438606321812,0.0184048563241959,0.0778629556298256
9.88436559213548,10.5792179957215,-4.599023614563,-13.3122257932897,-0.00468558445572853,0.0183677058666945,0.0780110210180283
9.88436559213548,10.5792179957215,-4.599023614563,-13.3122257932897,-0.00459612486883998,0.0183299351483583,0.0781584084033966
9.88436559213548,10.5792179957215,-4.599023614563,-13.3122257932897,-0.00450600730255246,0.0182915441691875,0.0783051177859306
9.88436559213548,10.5792179957215,-4.599023614563,-13.3122257932897,-0.00441523268818855,0.0182525329291821,0.0784511566162109
9.88436559213548,10.5792179957215,-4.599023614563,-13.3122257932897,-0.00432380102574825,0.0182129014283419,0.0785965174436569
9.88436559213548,10.5792179957215,-4.599023614563,-13.3122257932897,-0.00423171278089285,0.018172649666667,0.0787412077188492
9.88436559213548,10.5792179957215,-4.599023614563,-13.3122257932897,-0.00413896841928363,0.0181317795068026,0.0788852199912071
9.88436559213548,10.5792179957215,-4.599023614563,-13.3122257932897,-0.00404556840658188,0.0180902909487486,0.0790285617113113
9.88436559213548,10.5792179957215,-4.599023614563,-13.3122257932897,-0.00395151320844889,0.0180481839925051,0.0791712328791618
9.88436559213548,10.5792179957215,-4.599023614563,-13.3122257932897,-0.0038568030577153,0.018005458638072,0.0793132334947586
9.88436559213548,10.5792179957215,-4.599023614563,-13.3122257932897,-0.0037614384200424,0.0179621148854494,0.0794545635581017
9.88436559213548,10.5792179957215,-4.599023614563,-13.3122257932897,-0.00366541976109147,0.0179181545972824,0.079595223069191
9.88436559213548,10.5792179957215,-4.599023614563,-13.3122257932897,-0.00356874754652381,0.017873577773571,0.0797352120280266
9.88436559213548,10.5792179957215,-4.599023614563,-13.3122257932897,-0.0034714222420007,0.0178283844143152,0.0798745378851891
9.88436559213548,10.5792179957215,-4.599023614563,-13.3122257932897,-0.00337344408035278,0.017782574519515,0.0800131931900978
9.88436559213548,10.5792179957215,-4.599023614563,-13.3122257932897,-0.00327481352724135,0.0177361499518156,0.0801511853933334
9.88436559213548,10.5792179957215,-4.599023614563,-13.3122257932897,-0.00317553104832768,0.0176891088485718,0.0802885070443153
9.88436559213548,10.5792179957215,-4.599023614563,-13.3122257932897,-0.00307559710927308,0.0176414530724287,0.0804251655936241
9.88436559213548,10.5792179957215,-4.599023614563,-13.3122257932897,-0.00297501217573881,0.0175931826233864,0.0805611610412598
9.88436559213548,10.5792179957215,-4.599023614563,-13.3122257932897,-0.00287377648055553,0.01754429936409,0.0806964933872223
9.88436559213548,10.5792179957215,-4.599023614563,-13.3122257932897,-0.00277189048938453,0.0174948014318943,0.0808311626315117
9.88436559213548,10.5792179957215,-4.599023614563,-13.3122257932897,-0.00266935466788709,0.0174446906894445,0.080965168774128
9.88436559213548,10.5792179957215,-4.599023614563,-13.3122257932897,-0.0025661694817245,0.0173939671367407,0.0810985118150711
9.88436559213548,10.5792179957215,-4.599023614563,-13.3122257932897,-0.0024623351637274,0.0173426307737827,0.0812311992049217
9.88436559213548,10.5792179957215,-4.599023614563,-13.3122257932897,-0.00235785217955709,0.0172906834632158,0.0813632234930992
9.88436559213548,10.5792179957215,-4.599023614563,-13.3122257932897,-0.00225272099487484,0.0172381233423948,0.0814945921301842
9.88436559213548,10.5792179957215,-4.599023614563,-13.3122257932897,-0.00214694207534194,0.0171849522739649,0.081625297665596
9.88436559213548,10.5792179957215,-4.599023614563,-13.3122257932897,-0.00204051565378904,0.017131170257926,0.0817553475499153
9.88436559213548,10.5792179957215,-4.599023614563,-13.3122257932897,-0.00193344231229275,0.0170767772942781,0.0818847417831421
9.88436559213548,10.5792179957215,-4.599023614563,-13.3122257932897,-0.00182572240009904,0.0170217752456665,0.0820134803652763
9.88436559213548,10.5792179957215,-4.599023614563,-13.3122257932897,-0.00171735638286918,0.0169661622494459,0.0821415632963181
9.88436559213548,10.5792179957215,-4.599023614563,-13.3122257932897,-0.00160834460984915,0.0169099401682615,0.0822689905762672
9.88436559213548,10.5792179957215,-4.599023614563,-13.3122257932897,-0.00149868754670024,0.0168531090021133,0.0823957622051239
9.88436559213548,10.5792179957215,-4.599023614563,-13.3122257932897,-0.0013883855426684,0.0167956706136465,0.0825218856334686
9.88436559213548,10.5792179957215,-4.599023614563,-13.3122257932897,-0.00127743906341493,0.0167376231402159,0.0826473534107208
9.88436559213548,10.5792179957215,-4.599023614563,-13.3122257932897,-0.00116584845818579,0.0166789684444666,0.0827721729874611
9.88436559213548,10.5792179957215,-4.599023614563,-13.3122257932897,-0.00105361419264227,0.0166197065263987,0.0828963369131088
9.88436559213548,10.5792179957215,-4.599023614563,-13.3122257932897,-0.000940736616030335,0.0165598373860121,0.0830198526382446
9.88436559213548,10.5792179957215,-4.599023614563,-13.3122257932897,-0.000827216194011271,0.0164993610233068,0.0831427201628685
9.88436559213548,10.5792179957215,-4.599023614563,-13.3122257932897,-0.000713053334038705,0.0164382793009281,0.0832649394869804
9.88436559213548,10.5792179957215,-4.599023614563,-13.3122257932897,-0.000598248443566263,0.0163765903562307,0.0833865106105804
9.88436559213548,10.5792179957215,-4.599023614563,-13.3122257932897,-0.000482801959151402,0.0163142960518599,0.0835074335336685
9.88436559213548,10.5792179957215,-4.599023614563,-13.3122257932897,-0.000366714259143919,0.0162513963878155,0.0836277157068253
9.88436559213548,10.5792179957215,-4.599023614563,-13.3122257932897,-0.000249985750997439,0.0161878932267427,0.0837473496794701
9.88436559213548,10.5792179957215,-4.599023614563,-13.3122257932897,-0.000132616842165589,0.0161237847059965,0.0838663354516029
9.88436559213548,10.5792179957215,-4.599023614563,-13.3122257932897,-1.46079619298689e-05,0.0160590726882219,0.0839846804738045
9.88436559213548,10.5792179957215,-4.599023614563,-13.3122257932897,0.000104040496808011,0.015993757173419,0.0841023847460747
9.88436559213548,10.5792179957215,-4.599023614563,-13.3122257932897,0.000223328097490594,0.0159278381615877,0.0842194408178329
9.88436559213548,10.5792179957215,-4.599023614563,-13.3122257932897,0.000343254447216168,0.0158613175153732,0.0843358561396599
9.88436559213548,10.5792179957215,-4.599023614563,-13.3122257932897,0.00046381913125515,0.0157941933721304,0.0844516307115555
9.88436559213548,10.5792179957215,-4.599023614563,-13.3122257932897,0.000585021800361574,0.0157264675945044,0.0845667645335197
9.88436559213548,10.5792179957215,-4.599023614563,-13.3122257932897,0.000706861959770322,0.0156581401824951,0.0846812650561333
9.88436559213548,10.5792179957215,-4.599023614563,-13.3122257932897,0.000829339260235429,0.0155892111361027,0.0847951248288155
9.88436559213548,10.5792179957215,-4.599023614563,-13.3122257932897,0.000952453236095607,0.0155196813866496,0.0849083438515663
9.88436559213548,10.5792179957215,-4.599023614563,-13.3122257932897,0.00107620353810489,0.0154495518654585,0.0850209295749664
9.88436559213548,10.5792179957215,-4.599023614563,-13.3122257932897,0.00120058970060199,0.0153788216412067,0.0851328745484352
9.88436559213548,10.5792179957215,-4.599023614563,-13.3122257932897,0.00132561137434095,0.0153074916452169,0.0852441862225533
9.88436559213548,10.5792179957215,-4.599023614563,-13.3122257932897,0.00145126809366047,0.0152355628088117,0.0853548645973206
9.88436559213548,10.5792179957215,-4.599023614563,-13.3122257932897,0.0015775595093146,0.0151630351319909,0.0854649022221565
9.88436559213548,10.5792179957215,-4.599023614563,-13.3122257932897,0.00170448515564203,0.0150899086147547,0.0855743065476418
9.88436559213548,10.5792179957215,-4.599023614563,-13.3122257932897,0.00183204468339682,0.0150161841884255,0.0856830775737762
9.88436559213548,10.5792179957215,-4.599023614563,-13.3122257932897,0.00196023774333298,0.0149418618530035,0.0857912227511406
9.88436559213548,10.5792179957215,-4.599023614563,-13.3122257932897,0.0020890636369586,0.0148669425398111,0.0858987346291542
9.88436559213548,10.5792179957215,-4.599023614563,-13.3122257932897,0.00221852236427367,0.0147914262488484,0.0860056132078171
9.88436559213548,10.5792179957215,-4.599023614563,-13.3122257932897,0.00234861322678626,0.0147153129801154,0.0861118659377098
9.88436559213548,10.5792179957215,-4.599023614563,-13.3122257932897,0.00247933599166572,0.0146386036649346,0.0862174853682518
9.88436559213548,10.5792179957215,-4.599023614563,-13.3122257932897,0.00261068996042013,0.0145612983033061,0.0863224789500237
9.88436559213548,10.5792179957215,-4.599023614563,-13.3122257932897,0.00274267513304949,0.0144833978265524,0.0864268466830254
9.88436559213548,10.5792179957215,-4.599023614563,-13.3122257932897,0.00287529081106186,0.0144049022346735,0.0865305811166763
9.88436559213548,10.5792179957215,-4.599023614563,-13.3122257932897,0.0030085367616266,0.0143258115276694,0.0866336897015572
9.88436559213548,10.5792179957215,-4.599023614563,-13.3122257932897,0.00314241251908243,0.0142461266368628,0.0867361724376678
9.88436559213548,10.5792179957215,-4.599023614563,-13.3122257932897,0.00327691761776805,0.014165848493576,0.086838036775589
9.88436559213548,10.5792179957215,-4.599023614563,-13.3122257932897,0.00341205159202218,0.0140849761664867,0.08693927526474
9.88436559213548,10.5792179957215,-4.599023614563,-13.3122257932897,0.00354781420901418,0.0140035105869174,0.0870398879051209
9.88436559213548,10.5792179957215,-4.599023614563,-13.3122257932897,0.00368420500308275,0.0139214526861906,0.0871398821473122
9.88436559213548,10.5792179957215,-4.599023614563,-13.3122257932897,0.00382122350856662,0.0138388024643064,0.0872392505407333
9.88436559213548,10.5792179957215,-4.599023614563,-13.3122257932897,0.00395886925980449,0.0137555599212646,0.087338000535965
9.88436559213548,10.5792179957215,-4.599023614563,-13.3122257932897,0.00409714225679636,0.0136717259883881,0.0874361321330071
9.88436559213548,10.5792179957215,-4.599023614563,-13.3122257932897,0.00423604156821966,0.0135873006656766,0.087533637881279
9.88436559213548,10.5792179957215,-4.599023614563,-13.3122257932897,0.00437556719407439,0.0135022848844528,0.0876305252313614
9.88436559213548,10.5792179957215,-4.599023614563,-13.3122257932897,0.00451571866869926,0.0134166786447167,0.0877267941832542
9.88436559213548,10.5792179957215,-4.599023614563,-13.3122257932897,0.0046564950607717,0.0133304819464684,0.0878224447369576
9.88436559213548,10.5792179957215,-4.599023614563,-13.3122257932897,0.00479789637029171,0.0132436957210302,0.0879174843430519
9.88436559213548,10.5792179957215,-4.599023614563,-13.3122257932897,0.00493992259725928,0.0131563199684024,0.0880119055509567
9.88436559213548,10.5792179957215,-4.599023614563,-13.3122257932897,0.00508257281035185,0.0130683556199074,0.088105708360672
9.88436559213548,10.5792179957215,-4.599023614563,-13.3122257932897,0.00522584654390812,0.0129798026755452,0.0881989002227783
9.88436559213548,10.5792179957215,-4.599023614563,-13.3122257932897,0.00536974379792809,0.0128906620666385,0.0882914736866951
9.88436559213548,10.5792179957215,-4.599023614563,-13.3122257932897,0.00551426410675049,0.0128009328618646,0.0883834362030029
9.88436559213548,10.5792179957215,-4.599023614563,-13.3122257932897,0.00565940653905272,0.0127106169238687,0.0884747877717018
9.88436559213548,10.5792179957215,-4.599023614563,-13.3122257932897,0.0058051710948348,0.0126197133213282,0.0885655283927917
9.88436559213548,10.5792179957215,-4.599023614563,-13.3122257932897,0.00595155730843544,0.0125282239168882,0.0886556580662727
9.88436559213548,10.5792179957215,-4.599023614563,-13.3122257932897,0.00609856517985463,0.0124361477792263,0.0887451767921448
9.88436559213548,10.5792179957215,-4.599023614563,-13.3122257932897,0.0062461937777698,0.0123434858396649,0.0888340845704079
9.88436559213548,10.5792179957215,-4.599023614563,-13.3122257932897,0.00639444310218096,0.0122502380982041,0.088922381401062
9.88436559213548,10.5792179957215,-4.599023614563,-13.3122257932897,0.00654331222176552,0.0121564054861665,0.0890100747346878
9.88436559213548,10.5792179957215,-4.599023614563,-13.3122257932897,0.00669280113652349,0.012061988003552,0.0890971571207047
9.88436559213548,10.5792179957215,-4.599023614563,-13.3122257932897,0.00684290938079357,0.0119669865816832,0.0891836360096931
9.88436559213548,10.5792179957215,-4.599023614563,-13.3122257932897,0.00699363648891449,0.0118714012205601,0.0892695114016533
9.88436559213548,10.5792179957215,-4.599023614563,-13.3122257932897,0.00714498199522495,0.0117752319201827,0.0893547758460045
9.88436559213548,10.5792179957215,-4.599023614563,-13.3122257932897,0.00729694589972496,0.0116784796118736,0.0894394367933273
9.88436559213548,10.5792179957215,-4.599023614563,-13.3122257932897,0.00744952727109194,0.0115811442956328,0.0895234942436218
9.88436559213548,10.5792179957215,-4.599023614563,-13.3122257932897,0.00760272610932589,0.0114832269027829,0.089606948196888
9.88436559213548,10.5792179957215,-4.599023614563,-13.3122257932897,0.00775654148310423,0.0113847274333239,0.0896897986531258
9.88436559213548,10.5792179957215,-4.599023614563,-13.3122257932897,0.00791097339242697,0.0112856458872557,0.0897720530629158
9.88436559213548,10.5792179957215,-4.599023614563,-13.3122257932897,0.0080660218372941,0.0111859831959009,0.0898537039756775
9.88436559213548,10.5792179957215,-4.599023614563,-13.3122257932897,0.00822168588638306,0.0110857393592596,0.0899347513914108
9.88436559213548,10.5792179957215,-4.599023614563,-13.3122257932897,0.00837796460837126,0.0109849153086543,0.0900152027606964
9.88436559213548,10.5792179957215,-4.599023614563,-13.3122257932897,0.00853485893458128,0.010883511044085,0.0900950580835342
9.88436559213548,10.5792179957215,-4.599023614563,-13.3122257932897,0.00869236700236797,0.0107815265655518,0.0901743099093437
9.88436559213548,10.5792179957215,-4.599023614563,-13.3122257932897,0.00885048974305391,0.0106789628043771,0.0902529656887054
9.88436559213548,10.5792179957215,-4.599023614563,-13.3122257932897,0.00900922622531652,0.010575819760561,0.0903310254216194
9.88436559213548,10.5792179957215,-4.599023614563,-13.3122257932897,0.00916857551783323,0.0104720983654261,0.0904084891080856
9.88436559213548,10.5792179957215,-4.599023614563,-13.3122257932897,0.00932853762060404,0.0103677986189723,0.0904853567481041
9.88436559213548,10.5792179957215,-4.599023614563,-13.3122257932897,0.00948911253362894,0.0102629214525223,0.0905616283416748
9.88436559213548,10.5792179957215,-4.599023614563,-13.3122257932897,0.00965029932558537,0.0101574659347534,0.0906373113393784
9.88436559213548,10.5792179957215,-4.599023614563,-13.3122257932897,0.00981209799647331,0.0100514339283109,0.0907123982906342
9.88436559213548,10.5792179957215,-4.599023614563,-13.3122257932897,0.00997450761497021,0.00994482450187206,0.0907868966460228
9.88436559213548,10.5792179957215,-4.599023614563,-13.3122257932897,0.010137528181076,0.00983763951808214,0.0908607989549637
9.88436559213548,10.5792179957215,-4.599023614563,-13.3122257932897,0.0103011596947908,0.00972987804561853,0.0909341126680374
9.88436559213548,10.5792179957215,-4.599023614563,-13.3122257932897,0.010465401224792,0.00962154101580381,0.091006837785244
9.88436559213548,10.5792179957215,-4.599023614563,-13.3122257932897,0.0106302527710795,0.00951262842863798,0.0910789743065834
9.88436559213548,10.5792179957215,-4.599023614563,-13.3122257932897,0.0107957134023309,0.00940314121544361,0.0911505222320557
9.88436559213548,10.5792179957215,-4.599023614563,-13.3122257932897,0.010961783118546,0.0092930793762207,0.0912214815616608
9.88436559213548,10.5792179957215,-4.599023614563,-13.3122257932897,0.0111284609884024,0.00918244384229183,0.0912918522953987
9.88436559213548,10.5792179957215,-4.599023614563,-13.3122257932897,0.0112957470118999,0.009071234613657,0.0913616344332695
9.88436559213548,10.5792179957215,-4.599023614563,-13.3122257932897,0.0114636411890388,0.0089594516903162,0.0914308279752731
9.88436559213548,10.5792179957215,-4.599023614563,-13.3122257932897,0.0116321425884962,0.00884709600359201,0.0914994403719902
9.88436559213548,10.5792179957215,-4.599023614563,-13.3122257932897,0.0118012502789497,0.00873416755348444,0.0915674641728401
9.88436559213548,10.5792179957215,-4.599023614563,-13.3122257932897,0.0119709651917219,0.00862066633999348,0.0916349068284035
9.88436559213548,10.5792179957215,-4.599023614563,-13.3122257932897,0.0121412854641676,0.0085065932944417,0.0917017683386803
9.88436559213548,10.5792179957215,-4.599023614563,-13.3122257932897,0.0123122120276093,0.00839194934815168,0.0917680487036705
9.88436559213548,10.5792179957215,-4.599023614563,-13.3122257932897,0.0124837439507246,0.00827673356980085,0.0918337404727936
9.88436559213548,10.5792179957215,-4.599023614563,-13.3122257932897,0.0126558803021908,0.00816094689071178,0.0918988510966301
9.88436559213548,10.5792179957215,-4.599023614563,-13.3122257932897,0.0128286220133305,0.00804459024220705,0.0919633880257607
9.88436559213548,10.5792179957215,-4.599023614563,-13.3122257932897,0.0130019672214985,0.00792766362428665,0.0920273438096046
9.88436559213548,10.5792179957215,-4.599023614563,-13.3122257932897,0.0131759159266949,0.00781016750261188,0.0920907184481621
9.88436559213548,10.5792179957215,-4.599023614563,-13.3122257932897,0.0133504681289196,0.00769210187718272,0.092153511941433
9.88436559213548,10.5792179957215,-4.599023614563,-13.3122257932897,0.0135256238281727,0.00757346767932177,0.0922157317399979
9.88436559213548,10.5792179957215,-4.599023614563,-13.3122257932897,0.0137013820931315,0.00745426490902901,0.0922773703932762
9.88436559213548,10.5792179957215,-4.599023614563,-13.3122257932897,0.0138777419924736,0.00733449403196573,0.0923384353518486
9.88436559213548,10.5792179957215,-4.599023614563,-13.3122257932897,0.0140547044575214,0.00721415504813194,0.092398926615715
9.88436559213548,10.5792179957215,-4.599023614563,-13.3122257932897,0.0142322676256299,0.00709324888885021,0.0924588441848755
9.88436559213548,10.5792179957215,-4.599023614563,-13.3122257932897,0.0144104324281216,0.00697177555412054,0.09251818805933
9.88436559213548,10.5792179957215,-4.599023614563,-13.3122257932897,0.0145891979336739,0.00684973550960422,0.0925769582390785
9.88436559213548,10.5792179957215,-4.599023614563,-13.3122257932897,0.0147685632109642,0.00672712922096252,0.0926351547241211
9.88436559213548,10.5792179957215,-4.599023614563,-13.3122257932897,0.0149485282599926,0.00660395715385675,0.0926927775144577
9.88436559213548,10.5792179957215,-4.599023614563,-13.3122257932897,0.015129093080759,0.00648021977394819,0.0927498266100883
9.88436559213548,10.5792179957215,-4.599023614563,-13.3122257932897,0.015310256741941,0.00635591708123684,0.0928063094615936
9.88436559213548,10.5792179957215,-4.599023614563,-13.3122257932897,0.0154920192435384,0.00623104954138398,0.0928622186183929
9.88436559213548,10.5792179957215,-4.599023614563,-13.3122257932897,0.0156743805855513,0.00610561762005091,0.0929175615310669
9.88436559213548,10.5792179957215,-4.599023614563,-13.3122257932897,0.0158573389053345,0.0059796217828989,0.0929723381996155
9.88436559213548,10.5792179957215,-4.599023614563,-13.3122257932897,0.0160408951342106,0.00585306202992797,0.0930265411734581
9.88436559213548,10.5792179957215,-4.599023614563,-13.3122257932897,0.0162250474095345,0.00572593929246068,0.0930801779031754
9.88436559213548,10.5792179957215,-4.599023614563,-13.3122257932897,0.0164097975939512,0.00559825357049704,0.0931332483887672
9.88436559213548,10.5792179957215,-4.599023614563,-13.3122257932897,0.0165951438248158,0.00547000532969832,0.0931857526302338
9.88436559213548,10.5792179957215,-4.599023614563,-13.3122257932897,0.016781086102128,0.00534119503572583,0.0932376980781555
9.88436559213548,10.5792179957215,-4.599023614563,-13.3122257932897,0.0169676225632429,0.00521182268857956,0.0932890772819519
9.88436559213548,10.5792179957215,-4.599023614563,-13.3122257932897,0.0171547550708056,0.00508188875392079,0.0933398902416229
9.88436559213548,10.5792179957215,-4.599023614563,-13.3122257932897,0.0173424817621708,0.00495139416307211,0.0933901444077492
9.88436559213548,10.5792179957215,-4.599023614563,-13.3122257932897,0.0175308026373386,0.00482033891603351,0.0934398323297501
9.88436559213548,10.5792179957215,-4.599023614563,-13.3122257932897,0.0177197176963091,0.00468872301280499,0.0934889614582062
9.88436559213548,10.5792179957215,-4.599023614563,-13.3122257932897,0.0179092269390821,0.00455654738470912,0.0935375317931175
9.88436559213548,10.5792179957215,-4.599023614563,-13.3122257932897,0.0180993285030127,0.00442381203174591,0.0935855358839035
9.88436559213548,10.5792179957215,-4.599023614563,-13.3122257932897,0.0182900223881006,0.00429051741957664,0.0936329811811447
9.88436559213548,10.5792179957215,-4.599023614563,-13.3122257932897,0.018481308594346,0.00415666401386261,0.0936798676848412
9.88436559213548,10.5792179957215,-4.599023614563,-13.3122257932897,0.0186731871217489,0.00402225228026509,0.0937261953949928
9.88436559213548,10.5792179957215,-4.599023614563,-13.3122257932897,0.0188656579703093,0.00388728245161474,0.0937719717621803
9.88436559213548,10.5792179957215,-4.599023614563,-13.3122257932897,0.0190587192773819,0.00375175476074219,0.0938171893358231
9.88436559213548,10.5792179957215,-4.599023614563,-13.3122257932897,0.0192523710429668,0.00361566990613937,0.093861848115921
9.88436559213548,10.5792179957215,-4.599023614563,-13.3122257932897,0.0194466132670641,0.00347902812063694,0.0939059555530548
9.88436559213548,10.5792179957215,-4.599023614563,-13.3122257932897,0.0196414459496737,0.00334182963706553,0.0939495041966438
9.88436559213548,10.5792179957215,-4.599023614563,-13.3122257932897,0.0198368690907955,0.00320407492108643,0.0939925014972687
9.88436559213548,10.5792179957215,-4.599023614563,-13.3122257932897,0.0200328808277845,0.00306576420553029,0.0940349474549294
9.88436559213548,10.5792179957215,-4.599023614563,-13.3122257932897,0.0202294811606407,0.00292689818888903,0.0940768346190453
9.88436559213548,10.5792179957215,-4.599023614563,-13.3122257932897,0.0204266700893641,0.00278747687116265,0.094118170440197
9.88436559213548,10.5792179957215,-4.599023614563,-13.3122257932897,0.0206244476139545,0.0026475009508431,0.0941589549183846
9.88436559213548,10.5792179957215,-4.599023614563,-13.3122257932897,0.020822811871767,0.00250697042793036,0.0941991880536079
9.88436559213548,10.5792179957215,-4.599023614563,-13.3122257932897,0.0210217647254467,0.00236588600091636,0.0942388772964478
9.88436559213548,10.5792179957215,-4.599023614563,-13.3122257932897,0.0212213043123484,0.00222424790263176,0.0942780151963234
9.88436559213548,10.5792179957215,-4.599023614563,-13.3122257932897,0.021421430632472,0.00208205659873784,0.0943166017532349
9.88436559213548,10.5792179957215,-4.599023614563,-13.3122257932897,0.0216221418231726,0.00193931232206523,0.0943546444177628
9.88436559213548,10.5792179957215,-4.599023614563,-13.3122257932897,0.0218234397470951,0.00179601542185992,0.0943921357393265
9.88436559213548,10.5792179957215,-4.599023614563,-13.3122257932897,0.0220253225415945,0.00165216636378318,0.0944290831685066
9.88436559213548,10.5792179957215,-4.599023614563,-13.3122257932897,0.0222277902066708,0.00150776549708098,0.0944654867053032
9.88436559213548,10.5792179957215,-4.599023614563,-13.3122257932897,0.0224308427423239,0.00136281317099929,0.0945013388991356
9.88436559213548,10.5792179957215,-4.599023614563,-13.3122257932897,0.0226344801485538,0.00121730973478407,0.0945366472005844
9.88436559213548,10.5792179957215,-4.599023614563,-13.3122257932897,0.0228387005627155,0.0010712556540966,0.0945714116096497
9.88436559213548,10.5792179957215,-4.599023614563,-13.3122257932897,0.0230435039848089,0.000924651161767542,0.0946056395769119
9.88436559213548,10.5792179957215,-4.599023614563,-13.3122257932897,0.023248890414834,0.000777496723458171,0.0946393236517906
9.88436559213548,10.5792179957215,-4.599023614563,-13.3122257932897,0.0234548598527908,0.000629792688414454,0.0946724638342857
9.88436559213548,10.5792179957215,-4.599023614563,-13.3122257932897,0.0236614122986794,0.000481539405882359,0.0947050601243973
9.88436559213548,10.5792179957215,-4.599023614563,-13.3122257932897,0.0238685458898544,0.000332737225107849,0.0947371199727058
9.88436559213548,10.5792179957215,-4.599023614563,-13.3122257932897,0.0240762606263161,0.000183386524440721,0.0947686359286308
9.88436559213548,10.5792179957215,-4.599023614563,-13.3122257932897,0.0242845565080643,3.34876822307706e-05,0.0947996154427528
9.88436559213548,10.5792179957215,-4.599023614563,-13.3122257932897,0.024493433535099,-0.000116958937724121,0.0948300585150719
9.88436559213548,10.5792179957215,-4.599023614563,-13.3122257932897,0.0247028917074203,-0.000267952971626073,0.0948599651455879
9.88436559213548,10.5792179957215,-4.599023614563,-13.3122257932897,0.0249129291623831,-0.000419494055677205,0.094889335334301
9.88436559213548,10.5792179957215,-4.599023614563,-13.3122257932897,0.0251235458999872,-0.000571581826079637,0.0949181690812111
9.88436559213548,10.5792179957215,-4.599023614563,-13.3122257932897,0.0253347419202328,-0.000724215875379741,0.0949464663863182
9.88436559213548,10.5792179957215,-4.599023614563,-13.3122257932897,0.0255465172231197,-0.000877395912539214,0.0949742272496223
9.88436559213548,10.5792179957215,-4.599023614563,-13.3122257932897,0.0257588718086481,-0.00103112147189677,0.0950014516711235
9.88436559213548,10.5792179957215,-4.599023614563,-13.3122257932897,0.0259718038141727,-0.0011853922624141,0.0950281471014023
9.88436559213548,10.5792179957215,-4.599023614563,-13.3122257932897,0.0261853132396936,-0.0013402079930529,0.0950543060898781
9.88436559213548,10.5792179957215,-4.599023614563,-13.3122257932897,0.0263994000852108,-0.00149556819815189,0.0950799360871315
9.88436559213548,10.5792179957215,-4.599023614563,-13.3122257932897,0.0266140643507242,-0.00165147252846509,0.0951050296425819
9.88436559213548,10.5792179957215,-4.599023614563,-13.3122257932897,0.0268293041735888,-0.00180792063474655,0.09512959420681
9.88436559213548,10.5792179957215,-4.599023614563,-13.3122257932897,0.0270451195538044,-0.00196491205133498,0.0951536297798157
9.88436559213548,10.5792179957215,-4.599023614563,-13.3122257932897,0.0272615104913712,-0.0021224464289844,0.095177136361599
9.88436559213548,10.5792179957215,-4.599023614563,-13.3122257932897,0.027478476986289,-0.00228052353486419,0.0952001139521599
9.88436559213548,10.5792179957215,-4.599023614563,-13.3122257932897,0.027696019038558,-0.00243914313614368,0.0952225625514984
9.88436559213548,10.5792179957215,-4.599023614563,-13.3122257932897,0.0279141366481781,-0.00259830453433096,0.0952444821596146
9.88436559213548,10.5792179957215,-4.599023614563,-13.3122257932897,0.0281328279525042,-0.00275800749659538,0.0952658727765083
9.88436559213548,10.5792179957215,-4.599023614563,-13.3122257932897,0.0283520929515362,-0.0029182517901063,0.0952867418527603
9.88436559213548,10.5792179957215,-4.599023614563,-13.3122257932897,0.0285719316452742,-0.00307903671637177,0.0953070819377899
9.88436559213548,10.5792179957215,-4.599023614563,-13.3122257932897,0.028792342171073,-0.00324036227539182,0.0953269004821777
9.88436559213548,10.5792179957215,-4.599023614563,-13.3122257932897,0.0290133263915777,-0.00340222800150514,0.0953461900353432
9.88436559213548,10.5792179957215,-4.599023614563,-13.3122257932897,0.0292348824441433,-0.00356463342905045,0.0953649580478668
9.88436559213548,10.5792179957215,-4.599023614563,-13.3122257932897,0.0294570103287697,-0.0037275783251971,0.0953832045197487
9.88436559213548,10.5792179957215,-4.599023614563,-13.3122257932897,0.0296797100454569,-0.00389106222428381,0.0954009294509888
9.88436559213548,10.5792179957215,-4.599023614563,-13.3122257932897,0.0299029815942049,-0.0040550846606493,0.0954181328415871
9.88436559213548,10.5792179957215,-4.599023614563,-13.3122257932897,0.0301268231123686,-0.00421964563429356,0.0954348146915436
9.88436559213548,10.5792179957215,-4.599023614563,-13.3122257932897,0.0303512345999479,-0.00438474444672465,0.0954509750008583
9.88436559213548,10.5792179957215,-4.599023614563,-13.3122257932897,0.0305762160569429,-0.0045503806322813,0.0954666137695313
9.88436559213548,10.5792179957215,-4.599023614563,-13.3122257932897,0.0308017674833536,-0.00471655419096351,0.0954817309975624
9.88436559213548,10.5792179957215,-4.599023614563,-13.3122257932897,0.03102788887918,-0.00488326465710998,0.0954963341355324
9.88436559213548,10.5792179957215,-4.599023614563,-13.3122257932897,0.0312545783817768,-0.00505051156505942,0.0955104157328606
9.88436559213548,10.5792179957215,-4.599023614563,-13.3122257932897,0.0314818359911442,-0.00521829444915056,0.0955239832401276
9.88436559213548,10.5792179957215,-4.599023614563,-13.3122257932897,0.0317096635699272,-0.00538661330938339,0.0955370366573334
9.88436559213548,10.5792179957215,-4.599023614563,-13.3122257932897,0.0319380573928356,-0.00555546768009663,0.0955495685338974
9.88436559213548,10.5792179957215,-4.599023614563,-13.3122257932897,0.0321670174598694,-0.00572485709562898,0.0955615863204002
9.88436559213548,10.5792179957215,-4.599023614563,-13.3122257932897,0.0323965474963188,-0.00589478109031916,0.0955730900168419
9.88436559213548,10.5792179957215,-4.599023614563,-13.3122257932897,0.0326266437768936,-0.00606523919850588,0.0955840796232224
9.88436559213548,10.5792179957215,-4.599023614563,-13.3122257932897,0.0328573063015938,-0.00623623142018914,0.0955945551395416
9.88436559213548,10.5792179957215,-4.599023614563,-13.3122257932897,0.033088531345129,-0.00640775728970766,0.0956045240163803
9.88436559213548,10.5792179957215,-4.599023614563,-13.3122257932897,0.0333203226327896,-0.00657981634140015,0.0956139788031578
9.88436559213548,10.5792179957215,-4.599023614563,-13.3122257932897,0.0335526801645756,-0.00675240810960531,0.0956229194998741
9.88436559213548,10.5792179957215,-4.599023614563,-13.3122257932897,0.0337856039404869,-0.00692553259432316,0.0956313535571098
9.88436559213548,10.5792179957215,-4.599023614563,-13.3122257932897,0.0340190902352333,-0.0070991893298924,0.0956392735242844
9.88436559213548,10.5792179957215,-4.599023614563,-13.3122257932897,0.0342531390488148,-0.00727337785065174,0.0956466868519783
9.88436559213548,10.5792179957215,-4.599023614563,-13.3122257932897,0.0344877541065216,-0.0074480976909399,0.0956535935401917
9.88436559213548,10.5792179957215,-4.599023614563,-13.3122257932897,0.0347229316830635,-0.00762334885075688,0.0956599935889244
9.88436559213548,10.5792179957215,-4.599023614563,-13.3122257932897,0.0349586717784405,-0.00779913039878011,0.0956658869981766
9.88436559213548,10.5792179957215,-4.599023614563,-13.3122257932897,0.0351949743926525,-0.00797544233500957,0.0956712737679482
9.88436559213548,10.5792179957215,-4.599023614563,-13.3122257932897,0.0354318395256996,-0.00815228465944529,0.0956761538982391
9.88436559213548,10.5792179957215,-4.599023614563,-13.3122257932897,0.0356692634522915,-0.00832965597510338,0.0956805273890495
9.88436559213548,10.5792179957215,-4.599023614563,-13.3122257932897,0.0359072498977184,-0.00850755721330643,0.0956843942403793
9.88436559213548,10.5792179957215,-4.599023614563,-13.3122257932897,0.0361457988619804,-0.00868598744273186,0.0956877619028091
9.88436559213548,10.5792179957215,-4.599023614563,-13.3122257932897,0.0363849066197872,-0.00886494573205709,0.0956906229257584
9.88436559213548,10.5792179957215,-4.599023614563,-13.3122257932897,0.0366245768964291,-0.00904443208128214,0.0956929847598076
9.88436559213548,10.5792179957215,-4.599023614563,-13.3122257932897,0.0368648059666157,-0.00922444649040699,0.0956948399543762
9.88436559213548,10.5792179957215,-4.599023614563,-13.3122257932897,0.0371055938303471,-0.00940498895943165,0.0956961959600449
9.88436559213548,10.5792179957215,-4.599023614563,-13.3122257932897,0.0373469404876232,-0.00958605855703354,0.0956970527768135
9.88436559213548,10.5792179957215,-4.599023614563,-13.3122257932897,0.0375888459384441,-0.00976765435189009,0.0956974104046822
9.88436559213548,10.5792179957215,-4.599023614563,-13.3122257932897,0.0378313101828098,-0.00994977634400129,0.0956972688436508
9.88436559213548,10.5792179957215,-4.599023614563,-13.3122257932897,0.0380743332207203,-0.0101324245333672,0.0956966280937195
9.88436559213548,10.5792179957215,-4.599023614563,-13.3122257932897,0.0383179113268852,-0.0103155989199877,0.0956954881548882
9.88436559213548,10.5792179957215,-4.599023614563,-13.3122257932897,0.0385620482265949,-0.0104992985725403,0.0956938490271568
9.88436559213548,10.5792179957215,-4.599023614563,-13.3122257932897,0.0388067401945591,-0.010683523491025,0.0956917107105255
9.88436559213548,10.5792179957215,-4.599023614563,-13.3122257932897,0.039051990956068,-0.0108682727441192,0.0956890806555748
9.88436559213548,10.5792179957215,-4.599023614563,-13.3122257932897,0.0392977967858315,-0.0110535463318229,0.0956859514117241
9.88436559213548,10.5792179957215,-4.599023614563,-13.3122257932897,0.0395441576838493,-0.0112393433228135,0.095682330429554
9.88436559213548,10.5792179957215,-4.599023614563,-13.3122257932897,0.0397910736501217,-0.0114256637170911,0.0956782102584839
9.88436559213548,10.5792179957215,-4.599023614563,-13.3122257932897,0.0400385446846485,-0.0116125075146556,0.0956735983490944
9.88436559213548,10.5792179957215,-4.599023614563,-13.3122257932897,0.0402865707874298,-0.011799874715507,0.0956684947013855
9.88436559213548,10.5792179957215,-4.599023614563,-13.3122257932897,0.0405351519584656,-0.0119877643883228,0.0956628993153572
9.88436559213548,10.5792179957215,-4.599023614563,-13.3122257932897,0.0407842844724655,-0.0121761756017804,0.0956568121910095
9.88436559213548,10.5792179957215,-4.599023614563,-13.3122257932897,0.0410339720547199,-0.0123651092872024,0.0956502333283424
9.88436559213548,10.5792179957215,-4.599023614563,-13.3122257932897,0.0412842109799385,-0.0125545635819435,0.095643162727356
9.88436559213548,10.5792179957215,-4.599023614563,-13.3122257932897,0.0415350049734116,-0.0127445394173265,0.0956356078386307
9.88436559213548,10.5792179957215,-4.599023614563,-13.3122257932897,0.0417863503098488,-0.0129350358620286,0.095627561211586
9.88436559213548,10.5792179957215,-4.599023614563,-13.3122257932897,0.0420382469892502,-0.01312605291605,0.0956190228462219
9.88436559213548,10.5792179957215,-4.599023614563,-13.3122257932897,0.0422906950116158,-0.013317589648068,0.095610000193119
9.88436559213548,10.5792179957215,-4.599023614563,-13.3122257932897,0.0425436943769455,-0.0135096460580826,0.0956004932522774
9.88436559213548,10.5792179957215,-4.599023614563,-13.3122257932897,0.0427972450852394,-0.0137022221460938,0.0955904945731163
9.88436559213548,10.5792179957215,-4.599023614563,-13.3122257932897,0.0430513471364975,-0.0138953169807792,0.0955800116062164
9.88436559213548,10.5792179957215,-4.599023614563,-13.3122257932897,0.0433059968054295,-0.0140889305621386,0.0955690443515778
9.88436559213548,10.5792179957215,-4.599023614563,-13.3122257932897,0.0435611978173256,-0.0142830619588494,0.0955575928092003
9.88436559213548,10.5792179957215,-4.599023614563,-13.3122257932897,0.0438169464468956,-0.0144777111709118,0.095545656979084
9.88436559213548,10.5792179957215,-4.599023614563,-13.3122257932897,0.0440732464194298,-0.0146728781983256,0.0955332368612289
9.88436559213548,10.5792179957215,-4.599023614563,-13.3122257932897,0.0443300940096378,-0.0148685621097684,0.0955203324556351
9.88436559213548,10.5792179957215,-4.599023614563,-13.3122257932897,0.0445874892175198,-0.0150647629052401,0.095506951212883
9.88436559213548,10.5792179957215,-4.599023614563,-13.3122257932897,0.0448454320430756,-0.0152614805847406,0.0954930856823921
9.88436559213548,10.5792179957215,-4.599023614563,-13.3122257932897,0.0451039224863052,-0.0154587142169476,0.0954787358641624
9.88436559213548,10.5792179957215,-4.599023614563,-13.3122257932897,0.0453629605472088,-0.0156564638018608,0.0954639092087746
9.88436559213548,10.5792179957215,-4.599023614563,-13.3122257932897,0.0456225462257862,-0.0158547274768353,0.0954486057162285
9.88436559213548,10.5792179957215,-4.599023614563,-13.3122257932897,0.0458826757967472,-0.016053507104516,0.0954328179359436
9.88436559213548,10.5792179957215,-4.599023614563,-13.3122257932897,0.0461433529853821,-0.016252800822258,0.0954165533185005
9.88436559213548,10.5792179957215,-4.599023614563,-13.3122257932897,0.0464045740664005,-0.0164526086300612,0.0953998118638992
9.88436559213548,10.5792179957215,-4.599023614563,-13.3122257932897,0.0466663427650929,-0.0166529305279255,0.0953825935721397
9.88436559213548,10.5792179957215,-4.599023614563,-13.3122257932897,0.0469286553561687,-0.016853766515851,0.095364898443222
9.88436559213548,10.5792179957215,-4.599023614563,-13.3122257932897,0.0471915118396282,-0.0170551165938377,0.0953467264771461
9.88436559213548,10.5792179957215,-4.599023614563,-13.3122257932897,0.0474549122154713,-0.0172569788992405,0.095328077673912
9.88436559213548,10.5792179957215,-4.599023614563,-13.3122257932897,0.0477188564836979,-0.0174593534320593,0.0953089594841003
9.88436559213548,10.5792179957215,-4.599023614563,-13.3122257932897,0.0479833446443081,-0.0176622401922941,0.0952893644571304
9.88436559213548,10.5792179957215,-4.599023614563,-13.3122257932897,0.0482483766973019,-0.017865639179945,0.0952693000435829
9.88436559213548,10.5792179957215,-4.599023614563,-13.3122257932897,0.0485139489173889,-0.0180695503950119,0.0952487587928772
9.88436559213548,10.5792179957215,-4.599023614563,-13.3122257932897,0.0487800650298595,-0.0182739719748497,0.0952277481555939
9.88436559213548,10.5792179957215,-4.599023614563,-13.3122257932897,0.0490467213094234,-0.0184789039194584,0.0952062681317329
9.88436559213548,10.5792179957215,-4.599023614563,-13.3122257932897,0.0493139214813709,-0.018684346228838,0.0951843112707138
9.88436559213548,10.5792179957215,-4.599023614563,-13.3122257932897,0.0495816618204117,-0.0188902989029884,0.0951618850231171
9.88436559213548,10.5792179957215,-4.599023614563,-13.3122257932897,0.0498499423265457,-0.0190967619419098,0.0951389893889427
9.88436559213548,10.5792179957215,-4.599023614563,-13.3122257932897,0.050118762999773,-0.0193037334829569,0.0951156243681908
9.88436559213548,10.5792179957215,-4.599023614563,-13.3122257932897,0.0503881238400936,-0.0195112153887749,0.0950917974114418
9.88436559213548,10.5792179957215,-4.599023614563,-13.3122257932897,0.0506580248475075,-0.0197192057967186,0.0950675010681152
9.88436559213548,10.5792179957215,-4.599023614563,-13.3122257932897,0.0509284660220146,-0.0199277047067881,0.0950427353382111
9.88436559213548,10.5792179957215,-4.599023614563,-13.3122257932897,0.0511994436383247,-0.0201367102563381,0.0950175076723099
9.88436559213548,10.5792179957215,-4.599023614563,-13.3122257932897,0.0514709614217281,-0.0203462243080139,0.0949918106198311
9.88436559213548,10.5792179957215,-4.599023614563,-13.3122257932897,0.0517430156469345,-0.0205562449991703,0.0949656516313553
9.88436559213548,10.5792179957215,-4.599023614563,-13.3122257932897,0.0520156100392342,-0.0207667723298073,0.0949390232563019
9.88436559213548,10.5792179957215,-4.599023614563,-13.3122257932897,0.0522887408733368,-0.0209778062999249,0.0949119329452515
9.88436559213548,10.5792179957215,-4.599023614563,-13.3122257932897,0.0525624081492424,-0.021189346909523,0.094884380698204
9.88436559213548,10.5792179957215,-4.599023614563,-13.3122257932897,0.052836611866951,-0.0214013941586018,0.0948563665151596
9.88436559213548,10.5792179957215,-4.599023614563,-13.3122257932897,0.0531113520264626,-0.021613946184516,0.0948278903961182
9.88436559213548,10.5792179957215,-4.599023614563,-13.3122257932897,0.0533866286277771,-0.0218270029872656,0.0947989523410797
9.88436559213548,10.5792179957215,-4.599023614563,-13.3122257932897,0.0536624416708946,-0.0220405645668507,0.0947695523500443
9.88436559213548,10.5792179957215,-4.599023614563,-13.3122257932897,0.0539387874305248,-0.0222546309232712,0.0947396904230118
9.88436559213548,10.5792179957215,-4.599023614563,-13.3122257932897,0.054215669631958,-0.0224692020565271,0.0947093740105629
9.88436559213548,10.5792179957215,-4.599023614563,-13.3122257932897,0.0544930845499039,-0.0226842761039734,0.094678595662117
9.88436559213548,10.5792179957215,-4.599023614563,-13.3122257932897,0.0547710359096527,-0.0228998549282551,0.0946473628282547
9.88436559213548,10.5792179957215,-4.599023614563,-13.3122257932897,0.0550495199859142,-0.0231159366667271,0.0946156680583954
9.88436559213548,10.5792179957215,-4.599023614563,-13.3122257932897,0.0553285367786884,-0.0233325213193893,0.0945835188031197
9.88436559213548,10.5792179957215,-4.599023614563,-13.3122257932897,0.0556080862879753,-0.0235496070235968,0.0945509150624275
9.88436559213548,10.5792179957215,-4.599023614563,-13.3122257932897,0.0558881685137749,-0.0237671956419945,0.0945178493857384
9.88436559213548,10.5792179957215,-4.599023614563,-13.3122257932897,0.0561687834560871,-0.0239852853119373,0.0944843292236328
9.88436559213548,10.5792179957215,-4.599023614563,-13.3122257932897,0.056449931114912,-0.0242038760334253,0.0944503545761108
9.88436559213548,10.5792179957215,-4.599023614563,-13.3122257932897,0.0567316114902496,-0.0244229678064585,0.0944159254431725
9.88436559213548,10.5792179957215,-4.599023614563,-13.3122257932897,0.0570138208568096,-0.0246425606310368,0.0943810492753983
9.88436559213548,10.5792179957215,-4.599023614563,-13.3122257932897,0.0572965629398823,-0.0248626545071602,0.0943457186222076
9.88436559213548,10.5792179957215,-4.599023614563,-13.3122257932897,0.0575798340141773,-0.0250832475721836,0.0943099334836006
9.88436559213548,10.5792179957215,-4.599023614563,-13.3122257932897,0.057863637804985,-0.025304339826107,0.0942737013101578
9.88436559213548,10.5792179957215,-4.599023614563,-13.3122257932897,0.0581479705870152,-0.0255259312689304,0.0942370146512985
9.88436559213548,10.5792179957215,-4.599023614563,-13.3122257932897,0.0584328323602676,-0.0257480219006538,0.0941998809576035
9.88436559213548,10.5792179957215,-4.599023614563,-13.3122257932897,0.0587182231247425,-0.0259706117212772,0.094162292778492
9.88436559213548,10.5792179957215,-4.599023614563,-13.3122257932897,0.0590041428804398,-0.0261936988681555,0.0941242575645447
9.88436559213548,10.5792179957215,-4.599023614563,-13.3122257932897,0.0592905916273594,-0.0264172852039337,0.0940857753157616
9.88436559213548,10.5792179957215,-4.599023614563,-13.3122257932897,0.0595775656402111,-0.0266413688659668,0.0940468460321426
9.88436559213548,10.5792179957215,-4.599023614563,-13.3122257932897,0.0598650686442852,-0.0268659498542547,0.0940074697136879
9.88436559213548,10.5792179957215,-4.599023614563,-13.3122257932897,0.0601531006395817,-0.0270910281687975,0.0939676463603973
9.88436559213548,10.5792179957215,-4.599023614563,-13.3122257932897,0.0604416579008102,-0.02731660194695,0.093927375972271
9.88436559213548,10.5792179957215,-4.599023614563,-13.3122257932897,0.0607307404279709,-0.0275426711887121,0.0938866585493088
9.88436559213548,10.5792179957215,-4.599023614563,-13.3122257932897,0.0610203519463539,-0.0277692377567291,0.0938455015420914
9.88436559213548,10.5792179957215,-4.599023614563,-13.3122257932897,0.061310488730669,-0.0279962997883558,0.0938038975000381
9.88436559213548,10.5792179957215,-4.599023614563,-13.3122257932897,0.0616011507809162,-0.0282238554209471,0.0937618464231491
9.88436559213548,10.5792179957215,-4.599023614563,-13.3122257932897,0.0618923380970955,-0.028451906517148,0.0937193557620049
9.88436559213548,10.5792179957215,-4.599023614563,-13.3122257932897,0.0621840469539166,-0.0286804530769587,0.0936764255166054
9.88436559213548,10.5792179957215,-4.599023614563,-13.3122257932897,0.0624762810766697,-0.0289094932377338,0.0936330482363701
9.88436559213548,10.5792179957215,-4.599023614563,-13.3122257932897,0.0627690404653549,-0.0291390269994736,0.0935892313718796
9.88436559213548,10.5792179957215,-4.599023614563,-13.3122257932897,0.0630623251199722,-0.0293690543621778,0.0935449749231339
9.88436559213548,10.5792179957215,-4.599023614563,-13.3122257932897,0.0633561313152313,-0.0295995734632015,0.0935002788901329
9.88436559213548,10.5792179957215,-4.599023614563,-13.3122257932897,0.0636504590511322,-0.0298305861651897,0.0934551432728767
9.88436559213548,10.5792179957215,-4.599023614563,-13.3122257932897,0.0639453083276749,-0.0300620906054974,0.0934095680713654
9.88436559213548,10.5792179957215,-4.599023614563,-13.3122257932897,0.0642406791448593,-0.0302940867841244,0.0933635532855988
9.88436559213548,10.5792179957215,-4.599023614563,-13.3122257932897,0.0645365715026855,-0.0305265747010708,0.0933171063661575
9.88436559213548,10.5792179957215,-4.599023614563,-13.3122257932897,0.0648329854011536,-0.0307595543563366,0.0932702198624611
9.88436559213548,10.5792179957215,-4.599023614563,-13.3122257932897,0.0651299208402634,-0.0309930257499218,0.09322290122509
9.88436559213548,10.5792179957215,-4.599023614563,-13.3122257932897,0.065427377820015,-0.0312269870191813,0.0931751430034637
9.88436559213548,10.5792179957215,-4.599023614563,-13.3122257932897,0.0657253563404083,-0.0314614400267601,0.0931269526481628
9.88436559213548,10.5792179957215,-4.599023614563,-13.3122257932897,0.0660238564014435,-0.0316963829100132,0.0930783227086067
9.88436559213548,10.5792179957215,-4.599023614563,-13.3122257932897,0.0663228780031204,-0.0319318138062954,0.093029260635376
9.88436559213548,10.5792179957215,-4.599023614563,-13.3122257932897,0.0666224136948586,-0.0321677327156067,0.0929797664284706
9.88436559213548,10.5792179957215,-4.599023614563,-13.3122257932897,0.0669224709272385,-0.0324041433632374,0.0929298400878906
9.88436559213548,10.5792179957215,-4.599023614563,-13.3122257932897,0.0672230422496796,-0.0326410420238972,0.092879481613636
9.88436559213548,10.5792179957215,-4.599023614563,-13.3122257932897,0.0675241351127625,-0.0328784286975861,0.0928286910057068
9.88436559213548,10.5792179957215,-4.599023614563,-13.3122257932897,0.0678257495164871,-0.033116303384304,0.0927774682641029
9.88436559213548,10.5792179957215,-4.599023614563,-13.3122257932897,0.068127878010273,-0.0333546660840511,0.0927258208394051
9.88436559213548,10.5792179957215,-4.599023614563,-13.3122257932897,0.06843052059412,-0.033593513071537,0.0926737412810326
9.88436559213548,10.5792179957215,-4.599023614563,-13.3122257932897,0.0687336847186089,-0.033832848072052,0.0926212295889854
9.88436559213548,10.5792179957215,-4.599023614563,-13.3122257932897,0.0690373629331589,-0.0340726710855961,0.0925682932138443
9.88436559213548,10.5792179957215,-4.599023614563,-13.3122257932897,0.0693415552377701,-0.034312978386879,0.0925149247050285
9.88436559213548,10.5792179957215,-4.599023614563,-13.3122257932897,0.0696462690830231,-0.0345537737011909,0.0924611315131187
9.88436559213548,10.5792179957215,-4.599023614563,-13.3122257932897,0.0699514970183373,-0.0347950533032417,0.0924069136381149
9.88436559213548,10.5792179957215,-4.599023614563,-13.3122257932897,0.0702572390437126,-0.0350368171930313,0.0923522710800171
9.88436559213548,10.5792179957215,-4.599023614563,-13.3122257932897,0.0705634951591492,-0.0352790653705597,0.0922972038388252
9.88436559213548,10.5792179957215,-4.599023614563,-13.3122257932897,0.0708702653646469,-0.0355217978358269,0.0922417119145393
9.88436559213548,10.5792179957215,-4.599023614563,-13.3122257932897,0.0711775496602058,-0.0357650145888329,0.0921857953071594
9.88436559213548,10.5792179957215,-4.599023614563,-13.3122257932897,0.071485348045826,-0.0360087156295776,0.0921294540166855
9.88436559213548,10.5792179957215,-4.599023614563,-13.3122257932897,0.0717936605215073,-0.0362529009580612,0.0920726880431175
9.88436559213548,10.5792179957215,-4.599023614563,-13.3122257932897,0.0721024796366692,-0.0364975705742836,0.0920154973864555
9.88436559213548,10.5792179957215,-4.599023614563,-13.3122257932897,0.0724118128418922,-0.0367427207529545,0.0919578894972801
9.88436559213548,10.5792179957215,-4.599023614563,-13.3122257932897,0.0727216601371765,-0.0369883552193642,0.0918998569250107
9.88436559213548,10.5792179957215,-4.599023614563,-13.3122257932897,0.073032021522522,-0.0372344702482224,0.0918414071202278
9.88436559213548,10.5792179957215,-4.599023614563,-13.3122257932897,0.073342889547348,-0.0374810695648193,0.0917825326323509
9.88436559213548,10.5792179957215,-4.599023614563,-13.3122257932897,0.0736542716622353,-0.0377281494438648,0.0917232409119606
9.88436559213548,10.5792179957215,-4.599023614563,-13.3122257932897,0.0739661604166031,-0.0379757098853588,0.0916635319590569
9.88436559213548,10.5792179957215,-4.599023614563,-13.3122257932897,0.0742785632610321,-0.0382237508893013,0.0916034057736397
9.88436559213548,10.5792179957215,-4.599023614563,-13.3122257932897,0.0745914727449417,-0.0384722724556923,0.0915428623557091
9.88436559213548,10.5792179957215,-4.599023614563,-13.3122257932897,0.0749048963189125,-0.0387212745845318,0.091481901705265
9.88436559213548,10.5792179957215,-4.599023614563,-13.3122257932897,0.0752188265323639,-0.0389707535505295,0.0914205238223076
9.88436559213548,10.5792179957215,-4.599023614563,-13.3122257932897,0.0755332633852959,-0.0392207130789757,0.0913587287068367
9.88436559213548,10.5792179957215,-4.599023614563,-13.3122257932897,0.075848214328289,-0.0394711531698704,0.0912965163588524
9.88436559213548,10.5792179957215,-4.599023614563,-13.3122257932897,0.0761636719107628,-0.0397220700979233,0.0912338942289352
9.88436559213548,10.5792179957215,-4.599023614563,-13.3122257932897,0.0764796361327171,-0.0399734675884247,0.0911708548665047
9.88436559213548,10.5792179957215,-4.599023614563,-13.3122257932897,0.0767961069941521,-0.0402253419160843,0.0911074057221413
9.88436559213548,10.5792179957215,-4.599023614563,-13.3122257932897,0.0771130844950676,-0.0404776930809021,0.0910435393452644
9.88436559213548,10.5792179957215,-4.599023614563,-13.3122257932897,0.0774305686354637,-0.0407305210828781,0.0909792631864548
9.88436559213548,10.5792179957215,-4.599023614563,-13.3122257932897,0.0777485594153404,-0.0409838259220123,0.0909145697951317
9.88436559213548,10.5792179957215,-4.599023614563,-13.3122257932897,0.0780670568346977,-0.0412376075983047,0.0908494666218758
9.88436559213548,10.5792179957215,-4.599023614563,-13.3122257932897,0.0783860608935356,-0.0414918661117554,0.090783953666687
9.88436559213548,10.5792179957215,-4.599023614563,-13.3122257932897,0.0787055715918541,-0.0417466014623642,0.0907180309295654
9.88436559213548,10.5792179957215,-4.599023614563,-13.3122257932897,0.0790255889296532,-0.0420018136501312,0.090651698410511
9.88436559213548,10.5792179957215,-4.599023614563,-13.3122257932897,0.0793461054563522,-0.0422574989497662,0.0905849561095238
9.88436559213548,10.5792179957215,-4.599023614563,-13.3122257932897,0.0796671286225319,-0.0425136610865593,0.0905178114771843
9.88436559213548,10.5792179957215,-4.599023614563,-13.3122257932897,0.0799886584281921,-0.0427702963352203,0.090450257062912
9.88436559213548,10.5792179957215,-4.599023614563,-13.3122257932897,0.0803106874227524,-0.0430274046957493,0.0903822928667068
9.88436559213548,10.5792179957215,-4.599023614563,-13.3122257932897,0.0806332230567932,-0.0432849898934364,0.0903139263391495
9.88436559213548,10.5792179957215,-4.599023614563,-13.3122257932897,0.080956257879734,-0.0435430482029915,0.0902451500296593
9.88436559213548,10.5792179957215,-4.599023614563,-13.3122257932897,0.0812797993421555,-0.0438015796244144,0.0901759713888168
9.88436559213548,10.5792179957215,-4.599023614563,-13.3122257932897,0.0816038399934769,-0.0440605841577053,0.0901063829660416
9.88436559213548,10.5792179957215,-4.599023614563,-13.3122257932897,0.0819283872842789,-0.0443200618028641,0.0900363922119141
9.88436559213548,10.5792179957215,-4.599023614563,-13.3122257932897,0.0822534337639809,-0.0445800088346004,0.0899659991264343
9.88436559213548,10.5792179957215,-4.599023614563,-13.3122257932897,0.0825789794325829,-0.0448404289782047,0.0898952037096024
9.88436559213548,10.5792179957215,-4.599023614563,-13.3122257932897,0.0829050242900848,-0.0451013222336769,0.0898240059614182
9.88436559213548,10.5792179957215,-4.599023614563,-13.3122257932897,0.0832315683364868,-0.0453626848757267,0.0897524058818817
9.88436559213548,10.5792179957215,-4.599023614563,-13.3122257932897,0.0835586190223694,-0.0456245206296444,0.089680403470993
9.88436559213548,10.5792179957215,-4.599023614563,-13.3122257932897,0.0838861688971519,-0.0458868257701397,0.0896079987287521
9.88436559213548,10.5792179957215,-4.599023614563,-13.3122257932897,0.0842142179608345,-0.0461496002972126,0.0895351991057396
9.88436559213548,10.5792179957215,-4.599023614563,-13.3122257932897,0.0845427662134171,-0.0464128442108631,0.0894619971513748
9.88436559213548,10.5792179957215,-4.599023614563,-13.3122257932897,0.0848718136548996,-0.0466765575110912,0.0893883928656578
9.88436559213548,10.5792179957215,-4.599023614563,-13.3122257932897,0.0852013528347015,-0.046940740197897,0.0893143936991692
9.88436559213548,10.5792179957215,-4.599023614563,-13.3122257932897,0.0855313912034035,-0.0472053922712803,0.0892399996519089
9.88436559213548,10.5792179957215,-4.599023614563,-13.3122257932897,0.0858619287610054,-0.0474705137312412,0.0891652032732964
9.88436559213548,10.5792179957215,-4.599023614563,-13.3122257932897,0.0861929655075073,-0.0477361045777798,0.0890900120139122
9.88436559213548,10.5792179957215,-4.599023614563,-13.3122257932897,0.0865245014429092,-0.0480021610856056,0.0890144258737564
9.88436559213548,10.5792179957215,-4.599023614563,-13.3122257932897,0.0868565291166306,-0.0482686869800091,0.088938444852829
9.88436559213548,10.5792179957215,-4.599023614563,-13.3122257932897,0.0871890559792519,-0.0485356785356998,0.0888620689511299
9.88436559213548,10.5792179957215,-4.599023614563,-13.3122257932897,0.0875220745801926,-0.0488031357526779,0.0887852981686592
9.88436559213548,10.5792179957215,-4.599023614563,-13.3122257932897,0.0878555923700333,-0.0490710623562336,0.0887081325054169
9.88436559213548,10.5792179957215,-4.599023614563,-13.3122257932897,0.0881896018981934,-0.0493394546210766,0.0886305719614029
9.88436559213548,10.5792179957215,-4.599023614563,-13.3122257932897,0.0885241106152534,-0.0496083125472069,0.0885526165366173
9.88436559213548,10.5792179957215,-4.599023614563,-13.3122257932897,0.0888591110706329,-0.0498776361346245,0.0884742736816406
9.88436559213548,10.5792179957215,-4.599023614563,-13.3122257932897,0.0891946032643318,-0.0501474253833294,0.0883955359458923
9.88436559213548,10.5792179957215,-4.599023614563,-13.3122257932897,0.0895305946469307,-0.0504176765680313,0.088316410779953
9.88436559213548,10.5792179957215,-4.599023614563,-13.3122257932897,0.089867077767849,-0.0506883934140205,0.088236890733242
9.88436559213548,10.5792179957215,-4.599023614563,-13.3122257932897,0.0902040526270866,-0.0509595759212971,0.08815698325634
9.88436559213548,10.5792179957215,-4.599023614563,-13.3122257932897,0.0905415192246437,-0.0512312203645706,0.088076688349247
9.88436559213548,10.5792179957215,-4.599023614563,-13.3122257932897,0.0908794775605202,-0.0515033304691315,0.0879960060119629
9.88436559213548,10.5792179957215,-4.599023614563,-13.3122257932897,0.091217927634716,-0.0517759025096893,0.0879149362444878
9.88436559213548,10.5792179957215,-4.599023614563,-13.3122257932897,0.0915568694472313,-0.0520489364862442,0.0878334790468216
9.88436559213548,10.5792179957215,-4.599023614563,-13.3122257932897,0.0918963029980659,-0.0523224361240864,0.0877516344189644
9.88436559213548,10.5792179957215,-4.599023614563,-13.3122257932897,0.09223622828722,-0.0525963976979256,0.0876694023609161
9.88436559213548,10.5792179957215,-4.599023614563,-13.3122257932897,0.0925766453146935,-0.0528708212077618,0.0875867828726768
9.88436559213548,10.5792179957215,-4.599023614563,-13.3122257932897,0.0929175540804863,-0.0531457029283047,0.0875037759542465
9.88436559213548,10.5792179957215,-4.599023614563,-13.3122257932897,0.0932182595133781,-0.0534007027745247,0.0874145776033401
9.88436559213548,10.5792179957215,-4.599023614563,-13.3122257932897,0.0934380739927292,-0.0536154732108116,0.0873133689165115
9.88436559213548,10.5792179957215,-4.599023614563,-13.3122257932897,0.0935813561081886,-0.0537987314164639,0.0872263088822365
9.88436559213548,10.5792179957215,-4.599023614563,-13.3122257932897,0.0936524644494057,-0.0539591982960701,0.0871795564889908
9.88436559213548,10.5792179957215,-4.599023614563,-13.3122257932897,0.0936513990163803,-0.0540968738496304,0.0871731117367744
9.88436559213548,10.5792179957215,-4.599023614563,-13.3122257932897,0.0935781598091125,-0.0542117580771446,0.0872069746255875
9.88436559213548,10.5792179957215,-4.599023614563,-13.3122257932897,0.0934327468276024,-0.0543038472533226,0.0872811451554298
9.88436559213548,10.5792179957215,-4.599023614563,-13.3122257932897,0.0932442247867584,-0.05437096580863,0.0873876363039017
9.88436559213548,10.5792179957215,-4.599023614563,-13.3122257932897,0.0930416584014893,-0.0544109307229519,0.0875184461474419
9.88436559213548,10.5792179957215,-4.599023614563,-13.3122257932897,0.0928250476717949,-0.0544237419962883,0.087673582136631
9.88436559213548,10.5792179957215,-4.599023614563,-13.3122257932897,0.0925943925976753,-0.0544093996286392,0.0878530442714691
9.88436559213548,10.5792179957215,-4.599023614563,-13.3122257932897,0.09234968572855,-0.0543679036200047,0.0880568325519562
9.88436559213548,10.5792179957215,-4.599023614563,-13.3122257932897,0.0921032875776291,-0.05429707467556,0.0882529839873314
9.88436559213548,10.5792179957215,-4.599023614563,-13.3122257932897,0.0918675437569618,-0.0541947297751904,0.0884095132350922
9.88436559213548,10.5792179957215,-4.599023614563,-13.3122257932897,0.0916424617171288,-0.0540608689188957,0.0885264351963997
9.88436559213548,10.5792179957215,-4.599023614563,-13.3122257932897,0.0914280340075493,-0.0538954958319664,0.0886037424206734
9.88436559213548,10.5792179957215,-4.599023614563,-13.3122257932897,0.091224268078804,-0.0536986067891121,0.0886414349079132
9.88436559213548,10.5792179957215,-4.599023614563,-13.3122257932897,0.0910108089447021,-0.0534854605793953,0.0886213481426239
9.88436559213548,10.5792179957215,-4.599023614563,-13.3122257932897,0.0907673165202141,-0.0532713159918785,0.0885253176093102
9.88436559213548,10.5792179957215,-4.599023614563,-13.3122257932897,0.0904937908053398,-0.0530561730265617,0.088353343307972
9.88436559213548,10.5792179957215,-4.599023614563,-13.3122257932897,0.0901902318000793,-0.052840031683445,0.0881054326891899
9.88436559213548,10.5792179957215,-4.599023614563,-13.3122257932897,0.0898973271250725,-0.0526432357728481,0.087787389755249
9.88436559213548,10.5792179957215,-4.599023614563,-13.3122257932897,0.0896390527486801,-0.0524425357580185,0.0874377340078354
9.88436559213548,10.5792179957215,-4.599023614563,-13.3122257932897,0.0893943384289742,-0.0521856136620045,0.0870629996061325
9.88436559213548,10.5792179957215,-4.599023614563,-13.3122257932897,0.0891588255763054,-0.0518637485802174,0.0866370275616646
9.88436559213548,10.5792179957215,-4.599023614563,-13.3122257932897,0.0889325141906738,-0.0514769405126572,0.0861598253250122
9.88436559213548,10.5792179957215,-4.599023614563,-13.3122257932897,0.0887154042720795,-0.0510251894593239,0.0856313854455948
9.88436559213548,10.5792179957215,-4.599023614563,-13.3122257932897,0.0885329246520996,-0.0505324713885784,0.085096038877964
9.88436559213548,10.5792179957215,-4.599023614563,-13.3122257932897,0.0883814468979836,-0.0500249452888966,0.0846061035990715
9.88436559213548,10.5792179957215,-4.599023614563,-13.3122257932897,0.0882318988442421,-0.0495047941803932,0.0841695666313171
9.88436559213548,10.5792179957215,-4.599023614563,-13.3122257932897,0.0880842879414558,-0.0489720143377781,0.0837864279747009
9.88436559213548,10.5792179957215,-4.599023614563,-13.3122257932897,0.0879386067390442,-0.0484266057610512,0.0834566950798035
9.88436559213548,10.5792179957215,-4.599023614563,-13.3122257932897,0.0877992212772369,-0.0479201599955559,0.08314548432827
9.88436559213548,10.5792179957215,-4.599023614563,-13.3122257932897,0.087658129632473,-0.0475064441561699,0.0828498974442482
9.88436559213548,10.5792179957215,-4.599023614563,-13.3122257932897,0.0875029861927032,-0.0471876375377178,0.082601897418499
9.88436559213548,10.5792179957215,-4.599023614563,-13.3122257932897,0.0873337909579277,-0.04696374386549,0.0824014917016029
9.88436559213548,10.5792179957215,-4.599023614563,-13.3122257932897,0.0871505364775658,-0.046834759414196,0.08224868029356
9.88436559213548,10.5792179957215,-4.599023614563,-13.3122257932897,0.086944505572319,-0.0467803403735161,0.082170344889164
9.88436559213548,10.5792179957215,-4.599023614563,-13.3122257932897,0.0867273285984993,-0.0467648804187775,0.0822115391492844
9.88436559213548,10.5792179957215,-4.599023614563,-13.3122257932897,0.0865193456411362,-0.0467731207609177,0.0823904275894165
9.88436559213548,10.5792179957215,-4.599023614563,-13.3122257932897,0.0863205641508102,-0.0468050613999367,0.0827070102095604
9.88436559213548,10.5792179957215,-4.599023614563,-13.3122257932897,0.0861309766769409,-0.0468606986105442,0.0831612944602966
9.88436559213548,10.5792179957215,-4.599023614563,-13.3122257932897,0.0859324187040329,-0.0469000712037086,0.0837234780192375
9.88436559213548,10.5792179957215,-4.599023614563,-13.3122257932897,0.0857234373688698,-0.0469268150627613,0.0843310803174973
9.88436559213548,10.5792179957215,-4.599023614563,-13.3122257932897,0.0855207368731499,-0.0469845235347748,0.0849514007568359
9.88436559213548,10.5792179957215,-4.599023614563,-13.3122257932897,0.0853243246674538,-0.0470731966197491,0.0855844393372536
9.88436559213548,10.5792179957215,-4.599023614563,-13.3122257932897,0.0851342007517815,-0.0471928305923939,0.0862302035093308
9.88436559213548,10.5792179957215,-4.599023614563,-13.3122257932897,0.0849678069353104,-0.0473637767136097,0.0868981331586838
9.88436559213548,10.5792179957215,-4.599023614563,-13.3122257932897,0.0848171412944794,-0.0475823953747749,0.0875533521175385
9.88436559213548,10.5792179957215,-4.599023614563,-13.3122257932897,0.0846567749977112,-0.047824714332819,0.0881515368819237
9.88436559213548,10.5792179957215,-4.599023614563,-13.3122257932897,0.0844867080450058,-0.0480907298624516,0.0886926874518394
9.88436559213548,10.5792179957215,-4.599023614563,-13.3122257932897,0.0843069478869438,-0.0483804382383823,0.0891768038272858
9.88436559213548,10.5792179957215,-4.599023614563,-13.3122257932897,0.084126204252243,-0.0486698672175407,0.0896024331450462
9.88436559213548,10.5792179957215,-4.599023614563,-13.3122257932897,0.0839488357305527,-0.0488834418356419,0.0900030061602592
9.88436559213548,10.5792179957215,-4.599023614563,-13.3122257932897,0.0837704837322235,-0.0489695779979229,0.090413399040699
9.88436559213548,10.5792179957215,-4.599023614563,-13.3122257932897,0.0835911557078362,-0.0489282719790936,0.0908336117863655
9.88436559213548,10.5792179957215,-4.599023614563,-13.3122257932897,0.08341084420681,-0.0487595237791538,0.0912636369466782
9.88436559213548,10.5792179957215,-4.599023614563,-13.3122257932897,0.083199754357338,-0.0485076569020748,0.0917267352342606
9.88436559213548,10.5792179957215,-4.599023614563,-13.3122257932897,0.0829368233680725,-0.0482373386621475,0.0922192707657814
9.88436559213548,10.5792179957215,-4.599023614563,-13.3122257932897,0.0826307609677315,-0.0479689165949821,0.092714361846447
9.88436559213548,10.5792179957215,-4.599023614563,-13.3122257932897,0.0822815746068954,-0.0477023869752884,0.0932120084762573
9.88436559213548,10.5792179957215,-4.599023614563,-13.3122257932897,0.0818892568349838,-0.0474377535283566,0.0937122106552124
9.88436559213548,10.5792179957215,-4.599023614563,-13.3122257932897,0.0814618021249771,-0.0471459478139877,0.0941888093948364
9.88436559213548,10.5792179957215,-4.599023614563,-13.3122257932897,0.0810253694653511,-0.0468378700315952,0.0946454405784607
9.88436559213548,10.5792179957215,-4.599023614563,-13.3122257932897,0.0805981233716011,-0.0465534850955009,0.0951118990778923
9.88436559213548,10.5792179957215,-4.599023614563,-13.3122257932897,0.0801800638437271,-0.0462927930057049,0.0955881774425507
9.88436559213548,10.5792179957215,-4.599023614563,-13.3122257932897,0.0797711983323097,-0.046055793762207,0.0960742831230164
9.88436559213548,10.5792179957215,-4.599023614563,-13.3122257932897,0.0793555304408073,-0.045832309871912,0.0965774804353714
9.88436559213548,10.5792179957215,-4.599023614563,-13.3122257932897,0.0788996368646622,-0.0455918274819851,0.0970955863595009
9.88436559213548,10.5792179957215,-4.599023614563,-13.3122257932897,0.0783860832452774,-0.0453139990568161,0.0976191610097885
9.88436559213548,10.5792179957215,-4.599023614563,-13.3122257932897,0.0778148621320724,-0.044998824596405,0.0981482043862343
9.88436559213548,10.5792179957215,-4.599023614563,-13.3122257932897,0.0771859809756279,-0.0446463041007519,0.0986827164888382
9.88436559213548,10.5792179957215,-4.599023614563,-13.3122257932897,0.0765074267983437,-0.044265154749155,0.0992314144968987
9.88436559213548,10.5792179957215,-4.599023614563,-13.3122257932897,0.0757784768939018,-0.0438880771398544,0.099804475903511
9.88436559213548,10.5792179957215,-4.599023614563,-13.3122257932897,0.0749904066324234,-0.0435390472412109,0.100403346121311
9.88436559213548,10.5792179957215,-4.599023614563,-13.3122257932897,0.0741432160139084,-0.0432180687785149,0.10102803260088
9.88436559213548,10.5792179957215,-4.599023614563,-13.3122257932897,0.0732369050383568,-0.0429251380264759,0.101678535342216
9.88436559213548,10.5792179957215,-4.599023614563,-13.3122257932897,0.0722823739051819,-0.0426740609109402,0.102348312735558
9.88436559213548,10.5792179957215,-4.599023614563,-13.3122257932897,0.0713203176856041,-0.0424343161284924,0.103007577359676
9.88436559213548,10.5792179957215,-4.599023614563,-13.3122257932897,0.0703805238008499,-0.0421615839004517,0.10363307595253
9.88436559213548,10.5792179957215,-4.599023614563,-13.3122257932897,0.0694629922509193,-0.0418558605015278,0.104224808514118
9.88436559213548,10.5792179957215,-4.599023614563,-13.3122257932897,0.0685677155852318,-0.041517149657011,0.104782775044441
9.88436559213548,10.5792179957215,-4.599023614563,-13.3122257932897,0.0677026957273483,-0.0411687009036541,0.105322241783142
9.88436559213548,10.5792179957215,-4.599023614563,-13.3122257932897,0.0668679252266884,-0.0408628284931183,0.105884619057178
9.88436559213548,10.5792179957215,-4.599023614563,-13.3122257932897,0.0660554170608521,-0.0406285971403122,0.106496065855026
9.88436559213548,10.5792179957215,-4.599023614563,-13.3122257932897,0.0652651712298393,-0.0404660105705261,0.107156589627266
9.88436559213548,10.5792179957215,-4.599023614563,-13.3122257932897,0.0644971802830696,-0.0403750650584698,0.107866182923317
9.88436559213548,10.5792179957215,-4.599023614563,-13.3122257932897,0.0637470930814743,-0.0402990840375423,0.108593605458736
9.88436559213548,10.5792179957215,-4.599023614563,-13.3122257932897,0.063026525080204,-0.0401915647089481,0.109300345182419
9.88436559213548,10.5792179957215,-4.599023614563,-13.3122257932897,0.06235146895051,-0.0400626808404922,0.109979137778282
9.88436559213548,10.5792179957215,-4.599023614563,-13.3122257932897,0.0617219246923923,-0.0399124287068844,0.110629983246326
9.88436559213548,10.5792179957215,-4.599023614563,-13.3122257932897,0.0611378885805607,-0.0397408083081245,0.111252881586552
9.88436559213548,10.5792179957215,-4.599023614563,-13.3122257932897,0.0605724789202213,-0.0395935997366905,0.11184711009264
9.88436559213548,10.5792179957215,-4.599023614563,-13.3122257932897,0.0599908120930195,-0.0395078584551811,0.112403221428394
9.88436559213548,10.5792179957215,-4.599023614563,-13.3122257932897,0.0593849010765553,-0.0394748635590076,0.112912498414516
9.88436559213548,10.5792179957215,-4.599023614563,-13.3122257932897,0.0587547421455383,-0.0394946150481701,0.113374933600426
9.88436559213548,10.5792179957215,-4.599023614563,-13.3122257932897,0.0581003352999687,-0.0395671129226685,0.113790534436703
9.88436559213548,10.5792179957215,-4.599023614563,-13.3122257932897,0.0574187748134136,-0.0396654717624187,0.114100441336632
9.88436559213548,10.5792179957215,-4.599023614563,-13.3122257932897,0.0566962510347366,-0.0397490002214909,0.114252343773842
9.88436559213548,10.5792179957215,-4.599023614563,-13.3122257932897,0.0559218674898148,-0.0398038923740387,0.114252775907516
9.88436559213548,10.5792179957215,-4.599023614563,-13.3122257932897,0.055095624178648,-0.0398301519453526,0.114101745188236
9.88436559213548,10.5792179957215,-4.599023614563,-13.3122257932897,0.0542175211012363,-0.0398277714848518,0.113799244165421
9.88436559213548,10.5792179957215,-4.599023614563,-13.3122257932897,0.0533115342259407,-0.0397996641695499,0.113407768309116
9.88436559213548,10.5792179957215,-4.599023614563,-13.3122257932897,0.0523936487734318,-0.0397254787385464,0.112974546849728
9.88436559213548,10.5792179957215,-4.599023614563,-13.3122257932897,0.0514558739960194,-0.0395819656550884,0.112484320998192
9.88436559213548,10.5792179957215,-4.599023614563,-13.3122257932897,0.0504982061684132,-0.0393691249191761,0.111937090754509
9.88436559213548,10.5792179957215,-4.599023614563,-13.3122257932897,0.0495206490159035,-0.0390869565308094,0.111332856118679
9.88436559213548,10.5792179957215,-4.599023614563,-13.3122257932897,0.0485304668545723,-0.0387216508388519,0.110653452575207
9.88436559213548,10.5792179957215,-4.599023614563,-13.3122257932897,0.0475392825901508,-0.0383160822093487,0.10991196334362
9.88436559213548,10.5792179957215,-4.599023614563,-13.3122257932897,0.0465514585375786,-0.0379269234836102,0.109139628708363
9.88436559213548,10.5792179957215,-4.599023614563,-13.3122257932897,0.0455669946968555,-0.0375541746616364,0.108336456120014
9.88436559213548,10.5792179957215,-4.599023614563,-13.3122257932897,0.0445858873426914,-0.0371978394687176,0.107502438127995
9.88436559213548,10.5792179957215,-4.599023614563,-13.3122257932897,0.0436124987900257,-0.0368659049272537,0.106689892709255
9.88436559213548,10.5792179957215,-4.599023614563,-13.3122257932897,0.0426780730485916,-0.0365205891430378,0.105951867997646
9.88436559213548,10.5792179957215,-4.599023614563,-13.3122257932897,0.0418094955384731,-0.0361161157488823,0.105289086699486
9.88436559213548,10.5792179957215,-4.599023614563,-13.3122257932897,0.0410067662596703,-0.0356524847447872,0.104701556265354
9.88436559213548,10.5792179957215,-4.599023614563,-13.3122257932897,0.0402698814868927,-0.0351296924054623,0.104189269244671
9.88436559213548,10.5792179957215,-4.599023614563,-13.3122257932897,0.0395966619253159,-0.0345724485814571,0.103747144341469
9.88436559213548,10.5792179957215,-4.599023614563,-13.3122257932897,0.0389878377318382,-0.0340323373675346,0.103428952395916
9.88436559213548,10.5792179957215,-4.599023614563,-13.3122257932897,0.0384463109076023,-0.0335362479090691,0.103293545544147
9.88436559213548,10.5792179957215,-4.599023614563,-13.3122257932897,0.0379720814526081,-0.0330841764807701,0.103340931236744
9.88436559213548,10.5792179957215,-4.599023614563,-13.3122257932897,0.0375651530921459,-0.0326761230826378,0.103571102023125
9.88436559213548,10.5792179957215,-4.599023614563,-13.3122257932897,0.037231333553791,-0.0322793908417225,0.103957183659077
9.88436559213548,10.5792179957215,-4.599023614563,-13.3122257932897,0.0369524583220482,-0.0318583771586418,0.104409791529179
9.88436559213548,10.5792179957215,-4.599023614563,-13.3122257932897,0.0367045514285564,-0.0314101725816727,0.104866445064545
9.88436559213548,10.5792179957215,-4.599023614563,-13.3122257932897,0.0364876091480255,-0.030934777110815,0.105327136814594
9.88436559213548,10.5792179957215,-4.599023614563,-13.3122257932897,0.0363016314804554,-0.030432190746069,0.105791874229908
9.88436559213548,10.5792179957215,-4.599023614563,-13.3122257932897,0.0361240953207016,-0.0299612693488598,0.106264285743237
9.88436559213548,10.5792179957215,-4.599023614563,-13.3122257932897,0.035925205796957,-0.0295946728438139,0.106766179203987
9.88436559213548,10.5792179957215,-4.599023614563,-13.3122257932897,0.0356976985931396,-0.0293462090194225,0.107315711677074
9.88436559213548,10.5792179957215,-4.599023614563,-13.3122257932897,0.0354415737092495,-0.0292158760130405,0.107912890613079
9.88436559213548,10.5792179957215,-4.599023614563,-13.3122257932897,0.0351568274199963,-0.0292036756873131,0.10855770856142
9.88436559213548,10.5792179957215,-4.599023614563,-13.3122257932897,0.0348470956087112,-0.0292819943279028,0.109212383627892
9.88436559213548,10.5792179957215,-4.599023614563,-13.3122257932897,0.0345116518437862,-0.0294152274727821,0.109786823391914
9.88436559213548,10.5792179957215,-4.599023614563,-13.3122257932897,0.0341461338102818,-0.0295953825116158,0.110228702425957
9.88436559213548,10.5792179957215,-4.599023614563,-13.3122257932897,0.0337505415081978,-0.0298224594444036,0.110538028180599
9.88436559213548,10.5792179957215,-4.599023614563,-13.3122257932897,0.0333248749375343,-0.0300964564085007,0.110714793205261
9.88436559213548,10.5792179957215,-4.599023614563,-13.3122257932897,0.0328916609287262,-0.0304072014987469,0.110770627856255
9.88436559213548,10.5792179957215,-4.599023614563,-13.3122257932897,0.0324756018817425,-0.0307198166847229,0.110722251236439
9.88436559213548,10.5792179957215,-4.599023614563,-13.3122257932897,0.0320788770914078,-0.0310095958411694,0.110574744641781
9.88436559213548,10.5792179957215,-4.599023614563,-13.3122257932897,0.0317014902830124,-0.0312765389680862,0.110328108072281
9.88436559213548,10.5792179957215,-4.599023614563,-13.3122257932897,0.031343437731266,-0.0315206460654736,0.109982341527939
9.88436559213548,10.5792179957215,-4.599023614563,-13.3122257932897,0.0310090780258179,-0.0317411907017231,0.109580315649509
9.88436559213548,10.5792179957215,-4.599023614563,-13.3122257932897,0.0306969583034515,-0.0319701433181763,0.109191790223122
9.88436559213548,10.5792179957215,-4.599023614563,-13.3122257932897,0.0304012671113014,-0.0322402007877827,0.108843646943569
9.88436559213548,10.5792179957215,-4.599023614563,-13.3122257932897,0.0301220025867224,-0.0325513631105423,0.108535885810852
9.88436559213548,10.5792179957215,-4.599023614563,-13.3122257932897,0.0298591647297144,-0.0329036302864552,0.10826850682497
9.88436559213548,10.5792179957215,-4.599023614563,-13.3122257932897,0.029601126909256,-0.0332679376006126,0.108000822365284
9.88436559213548,10.5792179957215,-4.599023614563,-13.3122257932897,0.0293587874621153,-0.0335563644766808,0.107688508927822
9.88436559213548,10.5792179957215,-4.599023614563,-13.3122257932897,0.0291546732187271,-0.0337100513279438,0.107327938079834
9.88436559213548,10.5792179957215,-4.599023614563,-13.3122257932897,0.0289887823164463,-0.0337290018796921,0.106919102370739
9.88436559213548,10.5792179957215,-4.599023614563,-13.3122257932897,0.0288611147552729,-0.0336132124066353,0.106462009251118
9.88436559213548,10.5792179957215,-4.599023614563,-13.3122257932897,0.028762225061655,-0.0333684980869293,0.105939216911793
9.88436559213548,10.5792179957215,-4.599023614563,-13.3122257932897,0.0286790318787098,-0.033028282225132,0.105371072888374
9.88436559213548,10.5792179957215,-4.599023614563,-13.3122257932897,0.0286079030483961,-0.0326201729476452,0.104795359075069
9.88436559213548,10.5792179957215,-4.599023614563,-13.3122257932897,0.028548838570714,-0.0321441739797592,0.104212075471878
9.88436559213548,10.5792179957215,-4.599023614563,-13.3122257932897,0.0285018384456635,-0.0316002853214741,0.1036212220788
9.88436559213548,10.5792179957215,-4.599023614563,-13.3122257932897,0.0284690801054239,-0.0309892315417528,0.103039517998695
9.88436559213548,10.5792179957215,-4.599023614563,-13.3122257932897,0.0284302197396755,-0.0303219109773636,0.102472044527531
9.88436559213548,10.5792179957215,-4.599023614563,-13.3122257932897,0.0283627305179834,-0.0296084973961115,0.101907178759575
9.88436559213548,10.5792179957215,-4.599023614563,-13.3122257932897,0.0282666143029928,-0.0288489889353514,0.101344920694828
9.88436559213548,10.5792179957215,-4.599023614563,-13.3122257932897,0.0281418692320585,-0.0280433874577284,0.10078527033329
9.88436559213548,10.5792179957215,-4.599023614563,-13.3122257932897,0.0279797744005919,-0.0272381938993931,0.100249297916889
9.74971069240791,10.634913421895,-4.58325854554068,-13.5172173244229,0.027767252177,-0.0264806393533945,0.0997152104973793
9.67321239389159,10.7337662925317,-4.54289765257996,-13.6378417628452,0.0274999421089888,-0.0257714502513409,0.0991401374340057
9.68066836840585,10.8754603677367,-4.48200887360121,-13.6612465046286,0.027177844196558,-0.0251106265932322,0.0985240712761879
9.77774515658154,11.0499131755709,-4.40541293218974,-13.5891318942617,0.0268009565770626,-0.0244981683790684,0.0978670194745064
9.95668854492382,11.238354948162,-4.31949402985048,-13.4379012550457,0.0263954382389784,-0.0239202696830034,0.0971486419439316
10.1905079056911,11.4149842305661,-4.23186688311761,-13.2332097847046,0.0259990729391575,-0.0233921874314547,0.0963892713189125
10.4410286493703,11.5526415965261,-4.15042126482601,-13.0066138765406,0.0256234873086214,-0.0229429863393307,0.0956296101212502
10.6727603372735,11.6279066914821,-4.08175852619161,-12.7900700049118,0.025268679484725,-0.0225726682692766,0.0948696509003639
10.8505107696935,11.6263068896615,-4.03042433449911,-12.6106836613708,0.0249346494674683,-0.0222812313586473,0.0941094011068344
10.9516137841069,11.5460563657761,-3.99737414847711,-12.4874086859516,0.0245792530477047,-0.0220730341970921,0.0933699309825897
10.9675695695675,11.3986141654249,-3.98032065783589,-12.4282967099088,0.0241697933524847,-0.0219466239213943,0.0926897525787354
10.9064305785505,11.2079215088768,-3.97416808268944,-12.428846821361,0.0237157139927149,-0.0218961890786886,0.0920863002538681
10.7866876278515,11.003890969708,-3.97238745505882,-12.4754562643998,0.0232170168310404,-0.0219217278063297,0.0915595814585686
10.6362260621537,10.8182581514763,-3.96901439621383,-12.545220398562,0.0226737000048161,-0.0220232401043177,0.0911095887422562
10.4833785846113,10.676657088005,-3.96038631436139,-12.6110837424269,0.0221032034605742,-0.0222217962145805,0.0907334238290787
10.3545393450048,10.5937092238408,-3.94618472325864,-12.6468909969503,0.021520784124732,-0.0225377418100834,0.0904114618897438
10.267304443188,10.5688750909277,-3.92933390568107,-12.6315378864214,0.0209242627024651,-0.0229703523218632,0.0901269987225533
10.2309192875584,10.5874588353323,-3.91572585712186,-12.5545222831169,0.0203136391937733,-0.0235196240246296,0.0898800268769264
10.2440418027035,10.6221150073301,-3.91157105931708,-12.4161442478289,0.0196889117360115,-0.0241855587810278,0.0896705538034439
10.298172177677,10.6396570203166,-3.92241406822224,-12.230706678314,0.019063888117671,-0.0249281916767359,0.089493490755558
10.3806352558048,10.607605176864,-3.95003551146795,-12.0224644885998,0.0184610914438963,-0.0256610549986362,0.0893226787447929
10.4777120439805,10.5019066426228,-3.99226389194371,-11.8231741125165,0.0178892407566309,-0.026337644085288,0.0891370475292206
10.5779203414521,10.3124789456539,-4.04223727878029,-11.6640918825739,0.01734833791852,-0.0269579589366913,0.0889365971088409
10.6741024126861,10.0459631237473,-4.0897351589109,-11.572973422041,0.0168383810669184,-0.027521999552846,0.088721327483654
10.7620829119544,9.72641201125257,-4.12327755094461,-11.5642716590702,0.0163484700024128,-0.0280610099434853,0.0884672626852989
10.8400724053736,9.39125352983349,-4.13264394181461,-11.6396369280182,0.0158415473997593,-0.0286200400441885,0.0881707668304443
10.9119479996911,9.08464965067774,-4.11090001741469,-11.7861166046927,0.0152914542704821,-0.0292128957808018,0.0878521874547005
10.9763676194943,8.85018567222373,-4.05638096329343,-11.9782555318978,0.0146981906145811,-0.0298395752906799,0.0875115245580673
11.0318400698804,8.72249916412246,-3.97298099760236,-12.1824469009187,0.0140617564320564,-0.0305000804364681,0.0871487781405449
11.0726988102186,8.72117839750311,-3.86961773514199,-12.3654839840968,0.0133894179016352,-0.0311377327889204,0.0867748558521271
11.0910405075236,8.84670703338122,-3.75848051302598,-12.4974607224868,0.0127305835485458,-0.0316914990544319,0.0863795727491379
11.07866358983,9.07990605225615,-3.65264174385962,-12.5595232963185,0.0121273975819349,-0.032157015055418,0.0859418660402298
11.0260244097593,9.38507755071205,-3.56375512880265,-12.5439201351296,0.0115798600018024,-0.0325342826545238,0.0854617357254028
10.9299914580156,9.71696201910288,-3.5003618898231,-12.4555522318575,0.0110879708081484,-0.0328233018517494,0.084939181804657
10.7884770617349,10.0265050690453,-3.46644310495691,-12.3085724538628,0.0106531819328666,-0.0330553166568279,0.0843996331095696
10.6110248682955,10.2715165781074,-3.4621580173255,-12.123634985668,0.0102595081552863,-0.0332404971122742,0.0838714316487312
10.4101609148812,10.4219537562855,-3.4842349046157,-11.9219941333799,0.00988951046019793,-0.03335777297616,0.0833574831485748
10.2054198547196,10.4654832476837,-3.52765037017854,-11.7255043246895,0.00954318791627884,-0.0334071442484856,0.0828577876091003
10.0190204918631,10.4085042595843,-3.58709148441696,-11.5524692679145,0.00922054052352905,-0.0333886109292507,0.0823723450303078
9.87482194475723,10.2742139183863,-3.65860612258982,-11.4216427625609,0.00891284830868244,-0.0332810990512371,0.0819084197282791
9.7902711937655,10.0974172148615,-3.73980563787557,-11.3500782636461,0.00859758630394936,-0.0331035032868385,0.0814783647656441
9.78162226332895,9.91797897809797,-3.83060317038978,-11.3552293072438,0.00826094765216112,-0.0328957848250866,0.0810872763395309
9.85424345509787,9.77174593028561,-3.93183836568186,-11.4550495307475,0.00790293235331774,-0.0326579436659813,0.0807351469993591
10.0051523792665,9.68528222258533,-4.04469830883887,-11.6653921460064,0.0075235404074192,-0.0323899798095226,0.0804219767451286
10.2216738791607,9.66980507008821,-4.16938567292448,-11.9962591794235,0.0071576489135623,-0.0321049727499485,0.0801252424716949
10.4838259430821,9.72032904386488,-4.30438040996131,-12.4456002155863,0.00685103423893452,-0.0317847579717636,0.0798463970422745
