EOG_left_h,EOG_right_h,EOG_left_v,EOG_right_v,head_horizontal,head_frontal,head_sagittal
7.49739135719148,1.09576273068618,5.06909471609465,4.75624751557551,0.0,0.0,0.0
7.49739135719148,1.09576273068618,5.06909471609465,4.75624751557551,0.00398888438940048,0.001684624934569,0.0043336427770555
7.49739135719148,1.09576273068618,5.06909471609465,4.75624751557551,0.00796828977763653,0.00336535228416324,0.00865773111581802
7.49739135719148,1.09576273068618,5.06909471609465,4.75624751557551,0.0119382254779339,0.00504218600690365,0.0129722747951746
7.49739135719148,1.09576273068618,5.06909471609465,4.75624751557551,0.0158987008035183,0.00671512959524989,0.0172772817313671
7.49739135719148,1.09576273068618,5.06909471609465,4.75624751557551,0.0198497250676155,0.00838418677449226,0.0215727649629116
7.49739135719148,1.09576273068618,5.06909471609465,4.75624751557551,0.0237913075834513,0.0100493617355824,0.0258587300777435
7.49739135719148,1.09576273068618,5.06909471609465,4.75624751557551,0.0277234595268965,0.0117106577381492,0.0301351901143789
7.49739135719148,1.09576273068618,5.06909471609465,4.75624751557551,0.0316461883485317,0.013368078507483,0.0344021543860435
7.49739135719148,1.09576273068618,5.06909471609465,4.75624751557551,0.0355595052242279,0.0150216287001967,0.0386596322059631
7.49739135719148,1.09576273068618,5.06909471609465,4.75624751557551,0.0394634194672108,0.0166713111102581,0.0429076328873634
7.49739135719148,1.09576273068618,5.06909471609465,4.75624751557551,0.0433579385280609,0.0183171294629574,0.047146163880825
7.49739135719148,1.09576273068618,5.06909471609465,4.75624751557551,0.0472430773079395,0.0199590884149075,0.0513752363622189
7.49739135719148,1.09576273068618,5.06909471609465,4.75624751557551,0.0511188395321369,0.0215971916913986,0.0555948615074158
7.49739135719148,1.09576273068618,5.06909471609465,4.75624751557551,0.054985236376524,0.0232314430177212,0.0598050467669964
7.49739135719148,1.09576273068618,5.06909471609465,4.75624751557551,0.0588422790169716,0.0248618442565203,0.0640057995915413
7.49739135719148,1.09576273068618,5.06909471609465,4.75624751557551,0.0626899749040604,0.0264884009957314,0.068197138607502
7.49739135719148,1.09576273068618,5.06909471609465,4.75624751557551,0.0665283352136612,0.0281111169606447,0.0723790675401688
7.49739135719148,1.09576273068618,5.06909471609465,4.75624751557551,0.0703573673963547,0.0297299958765507,0.0765515938401222
7.49739135719148,1.09576273068618,5.06909471609465,4.75624751557551,0.074177086353302,0.0313450396060944,0.0807147324085236
7.49739135719148,1.09576273068618,5.06909471609465,4.75624751557551,0.0779874920845032,0.0329562537372112,0.0848684832453728
7.49739135719148,1.09576273068618,5.06909471609465,4.75624751557551,0.0817885994911194,0.0345636419951916,0.0890128687024117
7.49739135719148,1.09576273068618,5.06909471609465,4.75624751557551,0.0855804234743118,0.0361672081053257,0.0931478887796402
7.49739135719148,1.09576273068618,5.06909471609465,4.75624751557551,0.0893629640340805,0.0377669557929039,0.0972735583782196
7.49739135719148,1.09576273068618,5.06909471609465,4.75624751557551,0.0931362360715866,0.0393628887832165,0.10138988494873
7.49739135719148,1.09576273068618,5.06909471609465,4.75624751557551,0.0969002470374107,0.0409550108015537,0.105496875941753
7.49739135719148,1.09576273068618,5.06909471609465,4.75624751557551,0.100655004382133,0.0425433255732059,0.10959454625845
7.49739135719148,1.09576273068618,5.06909471609465,4.75624751557551,0.104400523006916,0.0441278368234634,0.1136829033494
7.49739135719148,1.09576273068618,5.06909471609465,4.75624751557551,0.108136810362339,0.0457085445523262,0.117761954665184
7.49739135719148,1.09576273068618,5.06909471609465,4.75624751557551,0.111863873898983,0.0472854562103748,0.121831707656384
7.49739135719148,1.09576273068618,5.06909471609465,4.75624751557551,0.115581728518009,0.0488585755228996,0.125892177224159
7.49739135719148,1.09576273068618,5.06909471609465,4.75624751557551,0.119290374219418,0.0504279062151909,0.129943370819092
7.49739135719148,1.09576273068618,5.06909471609465,4.75624751557551,0.122989825904369,0.0519934520125389,0.133985295891762
7.49739135719148,1.09576273068618,5.06909471609465,4.75624751557551,0.126680091023445,0.053555216640234,0.13801796734333
7.49739135719148,1.09576273068618,5.06909471609465,4.75624751557551,0.130361184477806,0.0551132038235664,0.142041385173798
7.49739135719148,1.09576273068618,5.06909471609465,4.75624751557551,0.134033113718033,0.0566674172878265,0.146055564284325
7.49739135719148,1.09576273068618,5.06909471609465,4.75624751557551,0.137695878744125,0.0582178607583046,0.150060519576073
7.49739135719148,1.09576273068618,5.06909471609465,4.75624751557551,0.141349494457245,0.0597645342350006,0.154056251049042
7.49739135719148,1.09576273068618,5.06909471609465,4.75624751557551,0.144993975758553,0.0613074451684952,0.158042773604393
7.49739135719148,1.09576273068618,5.06909471609465,4.75624751557551,0.14862933754921,0.0628466010093689,0.162020102143288
7.49739135719148,1.09576273068618,5.06909471609465,4.75624751557551,0.152255579829216,0.0643820017576218,0.165988236665726
7.49739135719148,1.09576273068618,5.06909471609465,4.75624751557551,0.155872702598572,0.0659136474132538,0.169947192072868
7.49739135719148,1.09576273068618,5.06909471609465,4.75624751557551,0.159480735659599,0.0674415454268456,0.173896968364716
7.49739135719148,1.09576273068618,5.06909471609465,4.75624751557551,0.163079664111137,0.0689656957983971,0.17783759534359
7.49739135719148,1.09576273068618,5.06909471609465,4.75624751557551,0.166669517755508,0.0704861059784889,0.18176905810833
7.49739135719148,1.09576273068618,5.06909471609465,4.75624751557551,0.170250296592712,0.0720027834177017,0.185691386461258
7.49739135719148,1.09576273068618,5.06909471609465,4.75624751557551,0.173822015523911,0.0735157206654549,0.189604580402374
7.49739135719148,1.09576273068618,5.06909471609465,4.75624751557551,0.177384674549103,0.0750249326229095,0.193508639931679
7.49739135719148,1.09576273068618,5.06909471609465,4.75624751557551,0.18093828856945,0.0765304192900658,0.197403594851494
7.49739135719148,1.09576273068618,5.06909471609465,4.75624751557551,0.184482872486115,0.0780321806669235,0.201289445161819
7.49739135719148,1.09576273068618,5.06909471609465,4.75624751557551,0.188018426299095,0.0795302242040634,0.205166190862656
7.49739135719148,1.09576273068618,5.06909471609465,4.75624751557551,0.191544964909554,0.0810245499014854,0.209033861756325
7.49739135719148,1.09576273068618,5.06909471609465,4.75624751557551,0.195062503218651,0.0825151652097702,0.212892442941666
7.49739135719148,1.09576273068618,5.06909471609465,4.75624751557551,0.198571041226387,0.0840020775794983,0.216741964221001
7.49739135719148,1.09576273068618,5.06909471609465,4.75624751557551,0.202070593833923,0.0854852795600891,0.22058242559433
7.49739135719148,1.09576273068618,5.06909471609465,4.75624751557551,0.20556116104126,0.0869647860527039,0.224413841962814
7.49739135719148,1.09576273068618,5.06909471609465,4.75624751557551,0.209042757749557,0.0884405970573425,0.228236213326454
7.49739135719148,1.09576273068618,5.06909471609465,4.75624751557551,0.212515398859978,0.0899127125740051,0.232049554586411
7.49739135719148,1.09576273068618,5.06909471609465,4.75624751557551,0.21597908437252,0.0913811400532722,0.235853880643845
7.49739135719148,1.09576273068618,5.06909471609465,4.75624751557551,0.219433829188347,0.0928458794951439,0.239649191498756
7.49739135719148,1.09576273068618,5.06909471609465,4.75624751557551,0.222879648208618,0.0943069383502007,0.243435502052307
7.49739135719148,1.09576273068618,5.06909471609465,4.75624751557551,0.226316541433334,0.0957643166184425,0.247212812304497
7.49739135719148,1.09576273068618,5.06909471609465,4.75624751557551,0.229744523763657,0.0972180217504501,0.250981152057648
7.49739135719148,1.09576273068618,5.06909471609465,4.75624751557551,0.233163595199585,0.0986680537462235,0.254740506410599
7.49739135719148,1.09576273068618,5.06909471609465,4.75624751557551,0.236573770642281,0.100114420056343,0.258490890264511
7.49739135719148,1.09576273068618,5.06909471609465,4.75624751557551,0.239975064992905,0.101557120680809,0.262232333421707
7.49739135719148,1.09576273068618,5.06909471609465,4.75624751557551,0.243367478251457,0.102996163070202,0.265964835882187
7.49739135719148,1.09576273068618,5.06909471609465,4.75624751557551,0.246751025319099,0.104431547224522,0.26968839764595
7.49739135719148,1.09576273068618,5.06909471609465,4.75624751557551,0.250125706195831,0.105863280594349,0.273403018712997
7.49739135719148,1.09576273068618,5.06909471609465,4.75624751557551,0.253491550683975,0.107291363179684,0.277108728885651
7.49739135719148,1.09576273068618,5.06909471609465,4.75624751557551,0.25684854388237,0.108715794980526,0.28080552816391
7.49739135719148,1.09576273068618,5.06909471609465,4.75624751557551,0.260196715593338,0.110136590898037,0.284493416547775
7.49739135719148,1.09576273068618,5.06909471609465,4.75624751557551,0.263536065816879,0.111553743481636,0.288172423839569
7.49739135719148,1.09576273068618,5.06909471609465,4.75624751557551,0.266866594552994,0.112967260181904,0.291842550039291
7.49739135719148,1.09576273068618,5.06909471609465,4.75624751557551,0.270188331604004,0.114377148449421,0.295503824949265
7.49739135719148,1.09576273068618,5.06909471609465,4.75624751557551,0.27350127696991,0.115783408284187,0.299156218767166
7.49739135719148,1.09576273068618,5.06909471609465,4.75624751557551,0.276805430650711,0.117186047136784,0.302799761295319
7.49739135719148,1.09576273068618,5.06909471609465,4.75624751557551,0.280100792646408,0.11858506500721,0.306434452533722
7.49739135719148,1.09576273068618,5.06909471609465,4.75624751557551,0.283387392759323,0.119980461895466,0.310060322284698
7.49739135719148,1.09576273068618,5.06909471609465,4.75624751557551,0.286665230989456,0.121372245252132,0.313677370548248
7.49739135719148,1.09576273068618,5.06909471609465,4.75624751557551,0.28993433713913,0.12276042252779,0.317285597324371
7.49739135719148,1.09576273068618,5.06909471609465,4.75624751557551,0.293194681406021,0.124144993722439,0.32088503241539
7.49739135719148,1.09576273068618,5.06909471609465,4.75624751557551,0.296446293592453,0.125525966286659,0.324475646018982
7.49739135719148,1.09576273068618,5.06909471609465,4.75624751557551,0.299689203500748,0.126903340220451,0.328057467937469
7.49739135719148,1.09576273068618,5.06909471609465,4.75624751557551,0.302923411130905,0.128277108073235,0.331630527973175
7.49739135719148,1.09576273068618,5.06909471609465,4.75624751557551,0.306148886680603,0.12964728474617,0.335194826126099
7.49739135719148,1.09576273068618,5.06909471609465,4.75624751557551,0.309365689754486,0.131013885140419,0.33875036239624
7.49739135719148,1.09576273068618,5.06909471609465,4.75624751557551,0.312573790550232,0.13237689435482,0.3422971367836
7.49739135719148,1.09576273068618,5.06909471609465,4.75624751557551,0.315773218870163,0.133736327290535,0.3458351790905
7.49739135719148,1.09576273068618,5.06909471609465,4.75624751557551,0.318963974714279,0.135092183947563,0.34936448931694
7.49739135719148,1.09576273068618,5.06909471609465,4.75624751557551,0.322146087884903,0.136444464325905,0.352885067462921
7.49739135719148,1.09576273068618,5.06909471609465,4.75624751557551,0.325319558382034,0.13779316842556,0.356396943330765
7.49739135719148,1.09576273068618,5.06909471609465,4.75624751557551,0.328484386205673,0.13913831114769,0.359900116920471
7.49739135719148,1.09576273068618,5.06909471609465,4.75624751557551,0.33164057135582,0.140479892492294,0.36339458823204
7.49739135719148,1.09576273068618,5.06909471609465,4.75624751557551,0.334788143634796,0.141817912459373,0.366880357265472
7.49739135719148,1.09576273068618,5.06909471609465,4.75624751557551,0.337927103042603,0.143152371048927,0.37035745382309
7.49739135719148,1.09576273068618,5.06909471609465,4.75624751557551,0.341057449579239,0.144483283162117,0.373825877904892
7.49739135719148,1.09576273068618,5.06909471609465,4.75624751557551,0.344179213047028,0.145810648798943,0.377285659313202
7.49739135719148,1.09576273068618,5.06909471609465,4.75624751557551,0.347292393445969,0.147134467959404,0.380736798048019
7.49739135719148,1.09576273068618,5.06909471609465,4.75624751557551,0.350396990776062,0.148454740643501,0.384179294109344
7.49739135719148,1.09576273068618,5.06909471609465,4.75624751557551,0.35349303483963,0.149771481752396,0.387613147497177
7.49739135719148,1.09576273068618,5.06909471609465,4.75624751557551,0.356580525636673,0.151084691286087,0.39103838801384
7.49739135719148,1.09576273068618,5.06909471609465,4.75624751557551,0.359659463167191,0.152394369244576,0.394455015659332
7.49739135719148,1.09576273068618,5.06909471609465,4.75624751557551,0.362729847431183,0.153700515627861,0.397863030433655
7.49739135719148,1.09576273068618,5.06909471609465,4.75624751557551,0.365791708230972,0.155003130435944,0.40126246213913
7.49739135719148,1.09576273068618,5.06909471609465,4.75624751557551,0.368845045566559,0.156302228569984,0.404653280973434
7.49739135719148,1.09576273068618,5.06909471609465,4.75624751557551,0.371889889240265,0.157597810029984,0.408035546541214
7.49739135719148,1.09576273068618,5.06909471609465,4.75624751557551,0.374926209449768,0.158889889717102,0.411409229040146
7.49739135719148,1.09576273068618,5.06909471609465,4.75624751557551,0.377954035997391,0.160178452730179,0.414774358272552
7.49739135719148,1.09576273068618,5.06909471609465,4.75624751557551,0.380973368883133,0.161463513970375,0.418130934238434
7.49739135719148,1.09576273068618,5.06909471609465,4.75624751557551,0.383984237909317,0.162745073437691,0.421478986740112
7.49739135719148,1.09576273068618,5.06909471609465,4.75624751557551,0.386986643075943,0.164023131132126,0.424818485975266
7.49739135719148,1.09576273068618,5.06909471609465,4.75624751557551,0.389980584383011,0.16529768705368,0.428149461746216
7.49739135719148,1.09576273068618,5.06909471609465,4.75624751557551,0.392966091632843,0.166568756103516,0.431471943855286
7.49739135719148,1.09576273068618,5.06909471609465,4.75624751557551,0.395943135023117,0.167836338281631,0.434785902500153
7.49739135719148,1.09576273068618,5.06909471609465,4.75624751557551,0.398911744356155,0.169100433588028,0.438091367483139
7.49739135719148,1.09576273068618,5.06909471609465,4.75624751557551,0.40187194943428,0.170361042022705,0.441388368606567
7.49739135719148,1.09576273068618,5.06909471609465,4.75624751557551,0.404823750257492,0.171618178486824,0.444676876068115
7.49739135719148,1.09576273068618,5.06909471609465,4.75624751557551,0.40776714682579,0.172871842980385,0.447956919670105
7.49739135719148,1.09576273068618,5.06909471609465,4.75624751557551,0.410702139139175,0.174122035503387,0.451228499412537
7.49739135719148,1.09576273068618,5.06909471609465,4.75624751557551,0.413628727197647,0.175368756055832,0.454491645097733
7.49739135719148,1.09576273068618,5.06909471609465,4.75624751557551,0.416546940803528,0.176612019538879,0.457746356725693
7.49739135719148,1.09576273068618,5.06909471609465,4.75624751557551,0.41945680975914,0.17785182595253,0.460992634296417
7.49739135719148,1.09576273068618,5.06909471609465,4.75624751557551,0.422358304262161,0.179088175296783,0.464230477809906
7.49739135719148,1.09576273068618,5.06909471609465,4.75624751557551,0.425251454114914,0.18032106757164,0.467459917068481
7.49739135719148,1.09576273068618,5.06909471609465,4.75624751557551,0.428136259317398,0.181550517678261,0.470680952072144
7.49739135719148,1.09576273068618,5.06909471609465,4.75624751557551,0.431012719869614,0.182776510715485,0.473893582820892
7.49739135719148,1.09576273068618,5.06909471609465,4.75624751557551,0.433880865573883,0.183999061584473,0.47709783911705
7.49739135719148,1.09576273068618,5.06909471609465,4.75624751557551,0.436740696430206,0.185218185186386,0.480293720960617
7.49739135719148,1.09576273068618,5.06909471609465,4.75624751557551,0.439592212438583,0.186433866620064,0.483481228351593
7.49739135719148,1.09576273068618,5.06909471609465,4.75624751557551,0.442435443401337,0.187646120786667,0.486660361289978
7.49739135719148,1.09576273068618,5.06909471609465,4.75624751557551,0.445270389318466,0.188854947686195,0.489831149578094
7.49739135719148,1.09576273068618,5.06909471609465,4.75624751557551,0.448097050189972,0.190060347318649,0.492993593215942
7.49739135719148,1.09576273068618,5.06909471609465,4.75624751557551,0.450915426015854,0.191262319684029,0.496147722005844
7.49739135719148,1.09576273068618,5.06909471609465,4.75624751557551,0.453725546598434,0.192460879683495,0.499293506145477
7.49739135719148,1.09576273068618,5.06909471609465,4.75624751557551,0.456527411937714,0.193656027317047,0.502430975437164
7.49739135719148,1.09576273068618,5.06909471609465,4.75624751557551,0.459321051836014,0.194847762584686,0.505560159683228
7.49739135719148,1.09576273068618,5.06909471609465,4.75624751557551,0.462106436491013,0.196036085486412,0.508681058883667
7.49739135719148,1.09576273068618,5.06909471609465,4.75624751557551,0.464883595705032,0.197221010923386,0.511793673038483
7.49739135719148,1.09576273068618,5.06909471609465,4.75624751557551,0.467652529478073,0.198402523994446,0.514898002147675
7.49739135719148,1.09576273068618,5.06909471609465,4.75624751557551,0.470413267612457,0.199580654501915,0.517994046211243
7.49739135719148,1.09576273068618,5.06909471609465,4.75624751557551,0.473165810108185,0.200755387544632,0.521081805229187
7.49739135719148,1.09576273068618,5.06909471609465,4.75624751557551,0.475910156965256,0.201926723122597,0.524161338806152
7.49739135719148,1.09576273068618,5.06909471609465,4.75624751557551,0.47864630818367,0.203094676136971,0.527232646942139
7.49739135719148,1.09576273068618,5.06909471609465,4.75624751557551,0.48137429356575,0.204259246587753,0.530295729637146
7.49739135719148,1.09576273068618,5.06909471609465,4.75624751557551,0.484094113111496,0.205420434474945,0.533350586891174
7.49739135719148,1.09576273068618,5.06909471609465,4.75624751557551,0.48680579662323,0.206578254699707,0.536397218704224
7.49739135719148,1.09576273068618,5.06909471609465,4.75624751557551,0.48950931429863,0.207732692360878,0.539435625076294
7.49739135719148,1.09576273068618,5.06909471609465,4.75624751557551,0.492204695940018,0.208883762359619,0.542465806007385
7.49739135719148,1.09576273068618,5.06909471609465,4.75624751557551,0.494891941547394,0.21003146469593,0.545487821102142
7.49739135719148,1.09576273068618,5.06909471609465,4.75624751557551,0.49757108092308,0.211175814270973,0.548501670360565
7.49739135719148,1.09576273068618,5.06909471609465,4.75624751557551,0.500242114067078,0.212316796183586,0.551507353782654
7.49739135719148,1.09576273068618,5.06909471609465,4.75624751557551,0.502905011177063,0.21345442533493,0.554504871368408
7.49739135719148,1.09576273068618,5.06909471609465,4.75624751557551,0.505559861660004,0.214588701725006,0.557494223117828
7.49739135719148,1.09576273068618,5.06909471609465,4.75624751557551,0.508206605911255,0.215719625353813,0.560475409030914
7.49739135719148,1.09576273068618,5.06909471609465,4.75624751557551,0.510845243930817,0.216847211122513,0.563448488712311
7.49739135719148,1.09576273068618,5.06909471609465,4.75624751557551,0.513475835323334,0.217971459031105,0.566413462162018
7.49739135719148,1.09576273068618,5.06909471609465,4.75624751557551,0.516098380088806,0.21909236907959,0.569370269775391
7.49739135719148,1.09576273068618,5.06909471609465,4.75624751557551,0.518712878227234,0.220209941267967,0.572318971157074
7.49739135719148,1.09576273068618,5.06909471609465,4.75624751557551,0.521319329738617,0.221324175596237,0.575259566307068
7.49739135719148,1.09576273068618,5.06909471609465,4.75624751557551,0.523917734622955,0.222435086965561,0.578192114830017
7.49739135719148,1.09576273068618,5.06909471609465,4.75624751557551,0.526508092880249,0.223542675375938,0.581116557121277
7.49739135719148,1.09576273068618,5.06909471609465,4.75624751557551,0.529090464115143,0.22464694082737,0.584032952785492
7.49739135719148,1.09576273068618,5.06909471609465,4.75624751557551,0.531664848327637,0.225747898221016,0.586941242218018
7.49739135719148,1.09576273068618,5.06909471609465,4.75624751557551,0.534231185913086,0.226845532655716,0.589841485023499
7.49739135719148,1.09576273068618,5.06909471609465,4.75624751557551,0.536789536476135,0.227939859032631,0.592733681201935
7.49739135719148,1.09576273068618,5.06909471609465,4.75624751557551,0.539339900016785,0.229030877351761,0.595617830753326
7.49739135719148,1.09576273068618,5.06909471609465,4.75624751557551,0.541882336139679,0.230118587613106,0.598493933677673
7.49739135719148,1.09576273068618,5.06909471609465,4.75624751557551,0.544416785240173,0.231203004717827,0.60136204957962
7.49739135719148,1.09576273068618,5.06909471609465,4.75624751557551,0.546943306922913,0.232284128665924,0.604222118854523
7.49739135719148,1.09576273068618,5.06909471609465,4.75624751557551,0.549461841583252,0.233361959457397,0.607074201107025
7.49739135719148,1.09576273068618,5.06909471609465,4.75624751557551,0.551972448825836,0.234436497092247,0.609918296337128
7.49739135719148,1.09576273068618,5.06909471609465,4.75624751557551,0.554475128650665,0.235507741570473,0.61275440454483
7.49739135719148,1.09576273068618,5.06909471609465,4.75624751557551,0.556969881057739,0.236575707793236,0.615582525730133
7.49739135719148,1.09576273068618,5.06909471609465,4.75624751557551,0.559456706047058,0.237640395760536,0.618402719497681
7.49739135719148,1.09576273068618,5.06909471609465,4.75624751557551,0.561935663223267,0.238701805472374,0.621214926242828
7.49739135719148,1.09576273068618,5.06909471609465,4.75624751557551,0.56440669298172,0.239759936928749,0.624019205570221
7.49739135719148,1.09576273068618,5.06909471609465,4.75624751557551,0.566869854927063,0.240814805030823,0.626815497875214
7.49739135719148,1.09576273068618,5.06909471609465,4.75624751557551,0.569325149059296,0.241866409778595,0.629603862762451
7.49739135719148,1.09576273068618,5.06909471609465,4.75624751557551,0.571772575378418,0.242914751172066,0.632384300231934
7.49739135719148,1.09576273068618,5.06909471609465,4.75624751557551,0.57421213388443,0.243959829211235,0.635156869888306
7.49739135719148,1.09576273068618,5.06909471609465,4.75624751557551,0.576643824577332,0.245001658797264,0.637921512126923
7.49739135719148,1.09576273068618,5.06909471609465,4.75624751557551,0.579067707061768,0.246040225028992,0.640678226947784
7.49739135719148,1.09576273068618,5.06909471609465,4.75624751557551,0.581483721733093,0.247075542807579,0.643427073955536
7.49739135719148,1.09576273068618,5.06909471609465,4.75624751557551,0.583891928195953,0.248107612133026,0.646168053150177
7.49739135719148,1.09576273068618,5.06909471609465,4.75624751557551,0.586292326450348,0.249136447906494,0.648901164531708
7.49739135719148,1.09576273068618,5.06909471609465,4.75624751557551,0.588684916496277,0.250162035226822,0.651626408100128
7.49739135719148,1.09576273068618,5.06909471609465,4.75624751557551,0.59106969833374,0.251184403896332,0.654343783855438
7.49739135719148,1.09576273068618,5.06909471609465,4.75624751557551,0.593446671962738,0.252203524112701,0.657053291797638
7.49739135719148,1.09576273068618,5.06909471609465,4.75624751557551,0.595815896987915,0.253219425678253,0.659754991531372
7.49739135719148,1.09576273068618,5.06909471609465,4.75624751557551,0.598177313804626,0.254232108592987,0.662448883056641
7.49739135719148,1.09576273068618,5.06909471609465,4.75624751557551,0.600530982017517,0.255241572856903,0.665134906768799
7.49739135719148,1.09576273068618,5.06909471609465,4.75624751557551,0.602876901626587,0.256247818470001,0.667813122272491
7.49739135719148,1.09576273068618,5.06909471609465,4.75624751557551,0.605215072631836,0.257250845432281,0.670483529567719
7.49739135719148,1.09576273068618,5.06909471609465,4.75624751557551,0.607545495033264,0.258250653743744,0.673146188259125
7.49739135719148,1.09576273068618,5.06909471609465,4.75624751557551,0.609868168830872,0.259247243404388,0.675801038742065
7.49739135719148,1.09576273068618,5.06909471609465,4.75624751557551,0.612183153629303,0.260240644216537,0.678448140621185
7.49739135719148,1.09576273068618,5.06909471609465,4.75624751557551,0.614490389823914,0.261230826377869,0.68108743429184
7.49739135719148,1.09576273068618,5.06909471609465,4.75624751557551,0.616789937019348,0.262217819690704,0.683718979358673
7.49739135719148,1.09576273068618,5.06909471609465,4.75624751557551,0.619081795215607,0.263201624155045,0.686342775821686
7.49739135719148,1.09576273068618,5.06909471609465,4.75624751557551,0.621365964412689,0.264182239770889,0.688958823680878
7.49739135719148,1.09576273068618,5.06909471609465,4.75624751557551,0.623642444610596,0.265159666538239,0.691567122936249
7.49739135719148,1.09576273068618,5.06909471609465,4.75624751557551,0.625911295413971,0.266133904457092,0.694167733192444
7.49739135719148,1.09576273068618,5.06909471609465,4.75624751557551,0.62817245721817,0.267104953527451,0.696760594844818
7.49739135719148,1.09576273068618,5.06909471609465,4.75624751557551,0.630425989627838,0.268072813749313,0.699345767498016
7.49739135719148,1.09576273068618,5.06909471609465,4.75624751557551,0.63267183303833,0.269037514925003,0.701923251152039
7.49739135719148,1.09576273068618,5.06909471609465,4.75624751557551,0.634910047054291,0.269999027252197,0.704493045806885
7.49739135719148,1.09576273068618,5.06909471609465,4.75624751557551,0.63714063167572,0.270957380533218,0.707055151462555
7.49739135719148,1.09576273068618,5.06909471609465,4.75624751557551,0.639363586902618,0.271912574768066,0.709609568119049
7.49739135719148,1.09576273068618,5.06909471609465,4.75624751557551,0.64157897233963,0.272864609956741,0.712156355381012
7.49739135719148,1.09576273068618,5.06909471609465,4.75624751557551,0.643786728382111,0.273813486099243,0.714695453643799
7.49739135719148,1.09576273068618,5.06909471609465,4.75624751557551,0.645986914634705,0.274759203195572,0.717226922512054
7.49739135719148,1.09576273068618,5.06909471609465,4.75624751557551,0.648179471492767,0.275701761245728,0.719750761985779
7.49739135719148,1.09576273068618,5.06909471609465,4.75624751557551,0.650364458560944,0.276641190052032,0.722266972064972
7.49739135719148,1.09576273068618,5.06909471609465,4.75624751557551,0.652541875839233,0.277577459812164,0.724775552749634
7.49739135719148,1.09576273068618,5.06909471609465,4.75624751557551,0.654711723327637,0.278510600328445,0.727276504039764
7.49739135719148,1.09576273068618,5.06909471609465,4.75624751557551,0.656874060630798,0.279440581798553,0.729769825935364
7.49739135719148,1.09576273068618,5.06909471609465,4.75624751557551,0.659028828144073,0.280367434024811,0.732255578041077
7.49739135719148,1.09576273068618,5.06909471609465,4.75624751557551,0.661176085472107,0.281291157007217,0.734733760356903
7.49739135719148,1.09576273068618,5.06909471609465,4.75624751557551,0.663315773010254,0.282211750745773,0.737204372882843
7.49739135719148,1.09576273068618,5.06909471609465,4.75624751557551,0.665447950363159,0.283129215240479,0.739667415618896
7.49739135719148,1.09576273068618,5.06909471609465,4.75624751557551,0.667572617530823,0.284043580293655,0.742122888565063
7.49739135719148,1.09576273068618,5.06909471609465,4.75624751557551,0.669689774513245,0.284954816102982,0.744570791721344
7.49739135719148,1.09576273068618,5.06909471609465,4.75624751557551,0.67179948091507,0.285862922668457,0.747011125087738
7.49739135719148,1.09576273068618,5.06909471609465,4.75624751557551,0.673901677131653,0.286767929792404,0.74944394826889
7.49739135719148,1.09576273068618,5.06909471609465,4.75624751557551,0.675996422767639,0.287669837474823,0.751869261264801
7.49739135719148,1.09576273068618,5.06909471609465,4.75624751557551,0.678083658218384,0.288568615913391,0.754287004470825
7.49739135719148,1.09576273068618,5.06909471609465,4.75624751557551,0.680163443088531,0.289464294910431,0.756697237491608
7.49739135719148,1.09576273068618,5.06909471609465,4.75624751557551,0.682235777378082,0.290356874465942,0.759100019931793
7.49739135719148,1.09576273068618,5.06909471609465,4.75624751557551,0.684300661087036,0.291246384382248,0.761495292186737
7.49739135719148,1.09576273068618,5.06909471609465,4.75624751557551,0.686358094215393,0.292132794857025,0.763883054256439
7.49739135719148,1.09576273068618,5.06909471609465,4.75624751557551,0.688408136367798,0.293016105890274,0.766263365745544
7.49739135719148,1.09576273068618,5.06909471609465,4.75624751557551,0.690450727939606,0.293896347284317,0.768636167049408
7.49739135719148,1.09576273068618,5.06909471609465,4.75624751557551,0.692485928535461,0.294773489236832,0.771001517772675
7.49739135719148,1.09576273068618,5.06909471609465,4.75624751557551,0.694513738155365,0.29564756155014,0.773359417915344
7.49739135719148,1.09576273068618,5.06909471609465,4.75624751557551,0.696534156799316,0.296518564224243,0.775709867477417
7.49739135719148,1.09576273068618,5.06909471609465,4.75624751557551,0.698547184467316,0.29738649725914,0.778052926063538
7.49739135719148,1.09576273068618,5.06909471609465,4.75624751557551,0.700552821159363,0.298251360654831,0.780388534069061
7.49739135719148,1.09576273068618,5.06909471609465,4.75624751557551,0.702551126480103,0.299113154411316,0.782716751098633
7.49739135719148,1.09576273068618,5.06909471609465,4.75624751557551,0.70454204082489,0.299971878528595,0.785037517547607
7.49739135719148,1.09576273068618,5.06909471609465,4.75624751557551,0.70652562379837,0.300827533006668,0.78735089302063
7.49739135719148,1.09576273068618,5.06909471609465,4.75624751557551,0.708501815795898,0.301680147647858,0.7896568775177
7.49739135719148,1.09576273068618,5.06909471609465,4.75624751557551,0.710470676422119,0.302529722452164,0.791955471038818
7.49739135719148,1.09576273068618,5.06909471609465,4.75624751557551,0.712432205677032,0.303376227617264,0.794246673583984
7.49739135719148,1.09576273068618,5.06909471609465,4.75624751557551,0.714386463165283,0.30421969294548,0.796530544757843
7.49739135719148,1.09576273068618,5.06909471609465,4.75624751557551,0.716333389282227,0.305060118436813,0.79880702495575
7.49739135719148,1.09576273068618,5.06909471609465,4.75624751557551,0.718273043632507,0.305897504091263,0.801076173782349
7.49739135719148,1.09576273068618,5.06909471609465,4.75624751557551,0.720205366611481,0.306731849908829,0.80333799123764
7.49739135719148,1.09576273068618,5.06909471609465,4.75624751557551,0.722130417823792,0.307563155889511,0.805592477321625
7.49739135719148,1.09576273068618,5.06909471609465,4.75624751557551,0.72404819726944,0.308391451835632,0.807839632034302
7.49739135719148,1.09576273068618,5.06909471609465,4.75624751557551,0.725958704948425,0.30921670794487,0.810079455375671
7.49739135719148,1.09576273068618,5.06909471609465,4.75624751557551,0.727861940860748,0.310038954019547,0.812312006950378
7.49739135719148,1.09576273068618,5.06909471609465,4.75624751557551,0.729757905006409,0.310858160257339,0.814537227153778
7.49739135719148,1.09576273068618,5.06909471609465,4.75624751557551,0.731646656990051,0.311674356460571,0.816755175590515
7.49739135719148,1.09576273068618,5.06909471609465,4.75624751557551,0.733528137207031,0.312487542629242,0.81896585226059
7.49739135719148,1.09576273068618,5.06909471609465,4.75624751557551,0.735402405261993,0.313297718763351,0.821169257164001
7.49739135719148,1.09576273068618,5.06909471609465,4.75624751557551,0.737269461154938,0.3141048848629,0.823365390300751
7.49739135719148,1.09576273068618,5.06909471609465,4.75624751557551,0.739129304885864,0.314909040927887,0.825554251670837
7.49739135719148,1.09576273068618,5.06909471609465,4.75624751557551,0.740981936454773,0.315710216760635,0.827735841274261
7.49739135719148,1.09576273068618,5.06909471609465,4.75624751557551,0.742827415466309,0.316508382558823,0.829910218715668
7.49739135719148,1.09576273068618,5.06909471609465,4.75624751557551,0.744665682315826,0.317303568124771,0.832077324390411
7.49739135719148,1.09576273068618,5.06909471609465,4.75624751557551,0.746496796607971,0.318095743656158,0.834237217903137
7.49739135719148,1.09576273068618,5.06909471609465,4.75624751557551,0.748320698738098,0.318884938955307,0.836389899253845
7.49739135719148,1.09576273068618,5.06909471609465,4.75624751557551,0.750137448310852,0.319671154022217,0.838535368442535
7.49739135719148,1.09576273068618,5.06909471609465,4.75624751557551,0.751947045326233,0.320454388856888,0.840673625469208
7.49739135719148,1.09576273068618,5.06909471609465,4.75624751557551,0.753749489784241,0.32123464345932,0.842804729938507
7.49739135719148,1.09576273068618,5.06909471609465,4.75624751557551,0.755544781684875,0.322011917829514,0.844928622245789
7.49739135719148,1.09576273068618,5.06909471609465,4.75624751557551,0.757332980632782,0.322786241769791,0.847045361995697
7.49739135719148,1.09576273068618,5.06909471609465,4.75624751557551,0.759114027023315,0.323557585477829,0.849154889583588
7.49739135719148,1.09576273068618,5.06909471609465,4.75624751557551,0.760887980461121,0.324325948953629,0.851257264614105
7.49739135719148,1.09576273068618,5.06909471609465,4.75624751557551,0.762654840946198,0.325091361999512,0.85335248708725
7.49739135719148,1.09576273068618,5.06909471609465,4.75624751557551,0.764414608478546,0.325853824615479,0.855440616607666
7.49739135719148,1.09576273068618,5.06909471609465,4.75624751557551,0.766167283058167,0.326613336801529,0.857521593570709
7.49739135719148,1.09576273068618,5.06909471609465,4.75624751557551,0.767912864685059,0.327369898557663,0.859595417976379
7.49739135719148,1.09576273068618,5.06909471609465,4.75624751557551,0.769651353359222,0.328123509883881,0.861662149429321
7.49739135719148,1.09576273068618,5.06909471609465,4.75624751557551,0.771382808685303,0.328874170780182,0.863721787929535
7.49739135719148,1.09576273068618,5.06909471609465,4.75624751557551,0.773107171058655,0.329621881246567,0.86577433347702
7.49739135719148,1.09576273068618,5.06909471609465,4.75624751557551,0.774824500083923,0.330366671085358,0.867819786071777
7.49739135719148,1.09576273068618,5.06909471609465,4.75624751557551,0.776534795761108,0.331108510494232,0.869858145713806
7.49739135719148,1.09576273068618,5.06909471609465,4.75624751557551,0.77823805809021,0.331847429275513,0.871889412403107
7.49739135719148,1.09576273068618,5.06909471609465,4.75624751557551,0.779934287071228,0.332583397626877,0.873913586139679
7.49739135719148,1.09576273068618,5.06909471609465,4.75624751557551,0.781623542308807,0.333316445350647,0.875930726528168
7.49739135719148,1.09576273068618,5.06909471609465,4.75624751557551,0.783305764198303,0.334046572446823,0.877940833568573
7.49739135719148,1.09576273068618,5.06909471609465,4.75624751557551,0.78498101234436,0.334773778915405,0.87994384765625
7.49739135719148,1.09576273068618,5.06909471609465,4.75624751557551,0.786649227142334,0.335498064756393,0.881939828395844
7.49739135719148,1.09576273068618,5.06909471609465,4.75624751557551,0.788310468196869,0.336219429969788,0.883928835391998
7.49739135719148,1.09576273068618,5.06909471609465,4.75624751557551,0.789964735507965,0.33693790435791,0.88591080904007
7.49739135719148,1.09576273068618,5.06909471609465,4.75624751557551,0.791612029075623,0.337653458118439,0.887885749340057
7.49739135719148,1.09576273068618,5.06909471609465,4.75624751557551,0.793252408504486,0.338366121053696,0.889853715896606
7.49739135719148,1.09576273068618,5.06909471609465,4.75624751557551,0.794885814189911,0.339075863361359,0.891814649105072
7.49739135719148,1.09576273068618,5.06909471609465,4.75624751557551,0.796512246131897,0.33978271484375,0.893768608570099
7.49739135719148,1.09576273068618,5.06909471609465,4.75624751557551,0.798131763935089,0.34048667550087,0.895715594291687
7.49739135719148,1.09576273068618,5.06909471609465,4.75624751557551,0.799744367599487,0.341187745332718,0.897655606269836
7.49739135719148,1.09576273068618,5.06909471609465,4.75624751557551,0.801350057125092,0.341885924339294,0.899588644504547
7.49739135719148,1.09576273068618,5.06909471609465,4.75624751557551,0.802948832511902,0.342581212520599,0.901514768600464
7.49739135719148,1.09576273068618,5.06909471609465,4.75624751557551,0.804540693759918,0.343273639678955,0.903433918952942
7.49739135719148,1.09576273068618,5.06909471609465,4.75624751557551,0.806125640869141,0.343963176012039,0.905346155166626
7.49739135719148,1.09576273068618,5.06909471609465,4.75624751557551,0.807703733444214,0.344649851322174,0.907251477241516
7.49739135719148,1.09576273068618,5.06909471609465,4.75624751557551,0.809274911880493,0.345333635807037,0.909149825572968
7.49739135719148,1.09576273068618,5.06909471609465,4.75624751557551,0.810839235782623,0.346014559268951,0.911041259765625
7.49739135719148,1.09576273068618,5.06909471609465,4.75624751557551,0.812396705150604,0.346692621707916,0.912925839424133
7.49739135719148,1.09576273068618,5.06909471609465,4.75624751557551,0.813947319984436,0.347367823123932,0.914803504943848
7.49739135719148,1.09576273068618,5.06909471609465,4.75624751557551,0.815491080284119,0.348040163516998,0.916674256324768
7.49739135719148,1.09576273068618,5.06909471609465,4.75624751557551,0.817027986049652,0.348709642887115,0.918538153171539
7.49739135719148,1.09576273068618,5.06909471609465,4.75624751557551,0.818558096885681,0.349376261234283,0.920395195484161
7.49739135719148,1.09576273068618,5.06909471609465,4.75624751557551,0.820081353187561,0.350040048360825,0.92224532365799
7.49739135719148,1.09576273068618,5.06909471609465,4.75624751557551,0.821597814559937,0.350700974464417,0.924088597297668
7.49739135719148,1.09576273068618,5.06909471609465,4.75624751557551,0.823107481002808,0.351359069347382,0.925925076007843
7.49739135719148,1.09576273068618,5.06909471609465,4.75624751557551,0.824610352516174,0.352014303207397,0.927754700183868
7.49739135719148,1.09576273068618,5.06909471609465,4.75624751557551,0.826106429100037,0.352666705846787,0.929577469825745
7.49739135719148,1.09576273068618,5.06909471609465,4.75624751557551,0.827595710754395,0.353316277265549,0.931393444538116
7.49739135719148,1.09576273068618,5.06909471609465,4.75624751557551,0.829078197479248,0.353963017463684,0.933202564716339
7.49739135719148,1.09576273068618,5.06909471609465,4.75624751557551,0.830553948879242,0.354606926441193,0.935004889965057
7.49739135719148,1.09576273068618,5.06909471609465,4.75624751557551,0.832022964954376,0.355248004198074,0.936800420284271
7.49739135719148,1.09576273068618,5.06909471609465,4.75624751557551,0.833485186100006,0.355886280536652,0.938589155673981
7.49739135719148,1.09576273068618,5.06909471609465,4.75624751557551,0.834940671920776,0.356521725654602,0.940371096134186
7.49739135719148,1.09576273068618,5.06909471609465,4.75624751557551,0.836389422416687,0.357154369354248,0.942146301269531
7.49739135719148,1.09576273068618,5.06909471609465,4.75624751557551,0.837831437587738,0.357784181833267,0.943914711475372
7.49739135719148,1.09576273068618,5.06909471609465,4.75624751557551,0.839266777038574,0.358411192893982,0.945676386356354
7.49739135719148,1.09576273068618,5.06909471609465,4.75624751557551,0.840695381164551,0.359035402536392,0.947431266307831
7.49739135719148,1.09576273068618,5.06909471609465,4.75624751557551,0.842117249965668,0.359656810760498,0.949179410934448
7.49739135719148,1.09576273068618,5.06909471609465,4.75624751557551,0.84353244304657,0.360275417566299,0.950920820236206
7.49739135719148,1.09576273068618,5.06909471609465,4.75624751557551,0.844940960407257,0.360891222953796,0.952655494213104
7.49739135719148,1.09576273068618,5.06909471609465,4.75624751557551,0.846342802047729,0.361504226922989,0.954383492469788
7.49739135719148,1.09576273068618,5.06909471609465,4.75624751557551,0.847737967967987,0.362114459276199,0.956104755401611
7.49739135719148,1.09576273068618,5.06909471609465,4.75624751557551,0.84912645816803,0.362721890211105,0.95781934261322
7.49739135719148,1.09576273068618,5.06909471609465,4.75624751557551,0.850508272647858,0.363326549530029,0.959527194499969
7.49739135719148,1.09576273068618,5.06909471609465,4.75624751557551,0.851883471012115,0.363928407430649,0.961228370666504
7.49739135719148,1.09576273068618,5.06909471609465,4.75624751557551,0.853252053260803,0.364527493715286,0.962922871112823
7.49739135719148,1.09576273068618,5.06909471609465,4.75624751557551,0.854613959789276,0.365123808383942,0.964610695838928
7.49739135719148,1.09576273068618,5.06909471609465,4.75624751557551,0.855969250202179,0.365717351436615,0.966291844844818
7.49739135719148,1.09576273068618,5.06909471609465,4.75624751557551,0.857317924499512,0.366308122873306,0.967966377735138
7.49739135719148,1.09576273068618,5.06909471609465,4.75624751557551,0.858659982681274,0.366896122694016,0.969634234905243
7.49739135719148,1.09576273068618,5.06909471609465,4.75624751557551,0.859995484352112,0.367481380701065,0.971295475959778
7.49739135719148,1.09576273068618,5.06909471609465,4.75624751557551,0.861324369907379,0.368063867092133,0.972950100898743
7.49739135719148,1.09576273068618,5.06909471609465,4.75624751557551,0.862646639347076,0.36864361166954,0.974598050117493
7.49739135719148,1.09576273068618,5.06909471609465,4.75624751557551,0.863962352275848,0.369220584630966,0.976239383220673
7.49739135719148,1.09576273068618,5.06909471609465,4.75624751557551,0.865271508693695,0.369794815778732,0.977874159812927
7.49739135719148,1.09576273068618,5.06909471609465,4.75624751557551,0.866574108600616,0.370366305112839,0.979502320289612
7.49739135719148,1.09576273068618,5.06909471609465,4.75624751557551,0.867870151996613,0.370935052633286,0.981123864650726
7.49739135719148,1.09576273068618,5.06909471609465,4.75624751557551,0.869159638881683,0.371501058340073,0.982738852500916
7.49739135719148,1.09576273068618,5.06909471609465,4.75624751557551,0.870442569255829,0.3720643222332,0.984347224235535
7.49739135719148,1.09576273068618,5.06909471609465,4.75624751557551,0.871719002723694,0.372624844312668,0.985949039459229
7.49739135719148,1.09576273068618,5.06909471609465,4.75624751557551,0.872988879680634,0.373182624578476,0.987544298171997
7.49739135719148,1.09576273068618,5.06909471609465,4.75624751557551,0.874252259731293,0.373737692832947,0.98913300037384
7.49739135719148,1.09576273068618,5.06909471609465,4.75624751557551,0.875509142875671,0.374290019273758,0.990715205669403
7.49739135719148,1.09576273068618,5.06909471609465,4.75624751557551,0.87675952911377,0.374839633703232,0.992290854454041
7.49739135719148,1.09576273068618,5.06909471609465,4.75624751557551,0.878003418445587,0.375386536121368,0.993859946727753
7.49739135719148,1.09576273068618,5.06909471609465,4.75624751557551,0.879240810871124,0.375930726528168,0.995422542095184
7.49739135719148,1.09576273068618,5.06909471609465,4.75624751557551,0.880471706390381,0.37647220492363,0.996978640556335
7.49739135719148,1.09576273068618,5.06909471609465,4.75624751557551,0.881696164608002,0.377010971307755,0.998528242111206
7.49739135719148,1.09576273068618,5.06909471609465,4.75624751557551,0.882914125919342,0.377547025680542,1.00007128715515
7.49739135719148,1.09576273068618,5.06909471609465,4.75624751557551,0.884125649929047,0.378080368041992,1.00160789489746
7.49739135719148,1.09576273068618,5.06909471609465,4.75624751557551,0.885330736637115,0.378610998392105,1.00313794612885
7.49739135719148,1.09576273068618,5.06909471609465,4.75624751557551,0.886529386043549,0.379138946533203,1.00466156005859
7.49739135719148,1.09576273068618,5.06909471609465,4.75624751557551,0.887721598148346,0.379664182662964,1.00617873668671
7.49739135719148,1.09576273068618,5.06909471609465,4.75624751557551,0.888907372951508,0.38018673658371,1.00768947601318
7.49739135719148,1.09576273068618,5.06909471609465,4.75624751557551,0.890086770057678,0.380706608295441,1.00919377803802
7.49739135719148,1.09576273068618,5.06909471609465,4.75624751557551,0.891259729862213,0.381223797798157,1.01069164276123
7.49739135719148,1.09576273068618,5.06909471609465,4.75624751557551,0.892426311969757,0.381738305091858,1.0121830701828
7.49739135719148,1.09576273068618,5.06909471609465,4.75624751557551,0.89358651638031,0.382250130176544,1.01366806030273
7.49739135719148,1.09576273068618,5.06909471609465,4.75624751557551,0.894740343093872,0.382759273052216,1.01514661312103
7.49739135719148,1.09576273068618,5.06909471609465,4.75624751557551,0.895887792110443,0.383265733718872,1.0166187286377
7.49739135719148,1.09576273068618,5.06909471609465,4.75624751557551,0.897028863430023,0.383769541978836,1.01808440685272
7.49739135719148,1.09576273068618,5.06909471609465,4.75624751557551,0.898163557052612,0.384270668029785,1.0195437669754
7.49739135719148,1.09576273068618,5.06909471609465,4.75624751557551,0.899291932582855,0.384769141674042,1.02099668979645
7.49739135719148,1.09576273068618,5.06909471609465,4.75624751557551,0.900413930416107,0.385264933109283,1.02244329452515
7.49739135719148,1.09576273068618,5.06909471609465,4.75624751557551,0.901529610157013,0.385758072137833,1.02388346195221
7.49739135719148,1.09576273068618,5.06909471609465,4.75624751557551,0.902638971805573,0.386248558759689,1.02531731128693
7.49739135719148,1.09576273068618,5.06909471609465,4.75624751557551,0.903742015361786,0.386736392974854,1.0267448425293
7.49739135719148,1.09576273068618,5.06909471609465,4.75624751557551,0.904838740825653,0.387221574783325,1.02816593647003
7.49739135719148,1.09576273068618,5.06909471609465,4.75624751557551,0.905929148197174,0.387704104185104,1.02958071231842
7.49739135719148,1.09576273068618,5.06909471609465,4.75624751557551,0.907013237476349,0.388184010982513,1.03098917007446
7.49739135719148,1.09576273068618,5.06909471609465,4.75624751557551,0.908091068267822,0.38866126537323,1.03239130973816
7.49739135719148,1.09576273068618,5.06909471609465,4.75624751557551,0.909162580966949,0.389135897159576,1.03378713130951
7.49739135719148,1.09576273068618,5.06909471609465,4.75624751557551,0.910227835178375,0.38960787653923,1.03517663478851
7.49739135719148,1.09576273068618,5.06909471609465,4.75624751557551,0.9112868309021,0.390077233314514,1.03655982017517
7.49739135719148,1.09576273068618,5.06909471609465,4.75624751557551,0.912339568138123,0.390543967485428,1.03793668746948
7.49739135719148,1.09576273068618,5.06909471609465,4.75624751557551,0.913386046886444,0.391008079051971,1.03930735588074
7.49739135719148,1.09576273068618,5.06909471609465,4.75624751557551,0.914426267147064,0.391469568014145,1.04067170619965
7.49739135719148,1.09576273068618,5.06909471609465,4.75624751557551,0.915460228919983,0.391928434371948,1.04202973842621
7.49739135719148,1.09576273068618,5.06909471609465,4.75624751557551,0.916487991809845,0.392384678125381,1.04338157176971
7.49739135719148,1.09576273068618,5.06909471609465,4.75624751557551,0.917509496212006,0.392838299274445,1.04472708702087
7.49739135719148,1.09576273068618,5.06909471609465,4.75624751557551,0.91852480173111,0.39328932762146,1.04606640338898
7.49739135719148,1.09576273068618,5.06909471609465,4.75624751557551,0.919533908367157,0.393737733364105,1.04739952087402
7.49739135719148,1.09576273068618,5.06909471609465,4.75624751557551,0.920536816120148,0.394183546304703,1.04872632026672
7.49739135719148,1.09576273068618,5.06909471609465,4.75624751557551,0.921533524990082,0.394626766443253,1.05004692077637
7.49739135719148,1.09576273068618,5.06909471609465,4.75624751557551,0.922524034976959,0.395067363977432,1.05136132240295
7.49739135719148,1.09576273068618,5.06909471609465,4.75624751557551,0.923508405685425,0.395505368709564,1.05266952514648
7.49739135719148,1.09576273068618,5.06909471609465,4.75624751557551,0.924486577510834,0.395940780639648,1.05397152900696
7.49739135719148,1.09576273068618,5.06909471609465,4.75624751557551,0.925458610057831,0.396373599767685,1.05526733398438
7.49739135719148,1.09576273068618,5.06909471609465,4.75624751557551,0.926424503326416,0.396803855895996,1.05655694007874
7.49739135719148,1.09576273068618,5.06909471609465,4.75624751557551,0.927384197711945,0.39723151922226,1.05784034729004
7.49739135719148,1.09576273068618,5.06909471609465,4.75624751557551,0.928337752819061,0.397656589746475,1.05911755561829
7.49739135719148,1.09576273068618,5.06909471609465,4.75624751557551,0.929285168647766,0.398079097270966,1.06038868427277
7.49739135719148,1.09576273068618,5.06909471609465,4.75624751557551,0.930226504802704,0.398499041795731,1.06165361404419
7.49739135719148,1.09576273068618,5.06909471609465,4.75624751557551,0.93116170167923,0.398916393518448,1.06291234493256
7.49739135719148,1.09576273068618,5.06909471609465,4.75624751557551,0.932090818881989,0.39933118224144,1.06416499614716
7.49739135719148,1.09576273068618,5.06909471609465,4.75624751557551,0.933013796806335,0.399743407964706,1.06541156768799
7.49739135719148,1.09576273068618,5.06909471609465,4.75624751557551,0.933930695056915,0.400153070688248,1.06665194034576
7.49739135719148,1.09576273068618,5.06909471609465,4.75624751557551,0.934841513633728,0.400560170412064,1.06788623332977
7.49739135719148,1.09576273068618,5.06909471609465,4.75624751557551,0.935746252536774,0.400964707136154,1.06911444664001
7.49739135719148,1.09576273068618,5.06909471609465,4.75624751557551,0.936644911766052,0.401366710662842,1.0703364610672
7.49739135719148,1.09576273068618,5.06909471609465,4.75624751557551,0.937537491321564,0.401766151189804,1.07155239582062
7.49739135719148,1.09576273068618,5.06909471609465,4.75624751557551,0.938424050807953,0.402163058519363,1.07276225090027
7.49739135719148,1.09576273068618,5.06909471609465,4.75624751557551,0.939304530620575,0.402557402849197,1.07396602630615
7.49739135719148,1.09576273068618,5.06909471609465,4.75624751557551,0.940178990364075,0.402949213981628,1.07516372203827
7.49739135719148,1.09576273068618,5.06909471609465,4.75624751557551,0.941047430038452,0.403338491916656,1.07635533809662
7.49739135719148,1.09576273068618,5.06909471609465,4.75624751557551,0.941909790039063,0.403725236654282,1.07754099369049
7.49739135719148,1.09576273068618,5.06909471609465,4.75624751557551,0.942766129970551,0.404109448194504,1.0787205696106
7.49739135719148,1.09576273068618,5.06909471609465,4.75624751557551,0.943616509437561,0.404491126537323,1.07989406585693
7.49739135719148,1.09576273068618,5.06909471609465,4.75624751557551,0.944460868835449,0.404870271682739,1.08106160163879
7.49739135719148,1.09576273068618,5.06909471609465,4.75624751557551,0.945299208164215,0.405246883630753,1.08222305774689
7.49739135719148,1.09576273068618,5.06909471609465,4.75624751557551,0.946131587028503,0.405620992183685,1.0833785533905
7.49739135719148,1.09576273068618,5.06909471609465,4.75624751557551,0.946957945823669,0.405992567539215,1.08452796936035
7.49739135719148,1.09576273068618,5.06909471609465,4.75624751557551,0.947778344154358,0.406361639499664,1.08567142486572
7.49739135719148,1.09576273068618,5.06909471609465,4.75624751557551,0.948592782020569,0.406728178262711,1.08680891990662
7.49739135719148,1.09576273068618,5.06909471609465,4.75624751557551,0.949401259422302,0.407092213630676,1.08794033527374
7.49739135719148,1.09576273068618,5.06909471609465,4.75624751557551,0.950203776359558,0.407453745603561,1.08906579017639
7.49739135719148,1.09576273068618,5.06909471609465,4.75624751557551,0.951000332832336,0.407812774181366,1.09018528461456
7.49739135719148,1.09576273068618,5.06909471609465,4.75624751557551,0.951790988445282,0.40816929936409,1.09129881858826
7.49739135719148,1.09576273068618,5.06909471609465,4.75624751557551,0.95257568359375,0.408523321151733,1.09240639209747
7.49739135719148,1.09576273068618,5.06909471609465,4.75624751557551,0.953354477882385,0.408874869346619,1.09350800514221
7.49739135719148,1.09576273068618,5.06909471609465,4.75624751557551,0.954127371311188,0.409223914146423,1.09460365772247
7.49739135719148,1.09576273068618,5.06909471609465,4.75624751557551,0.954894363880157,0.40957048535347,1.09569334983826
7.49739135719148,1.09576273068618,5.06909471609465,4.75624751557551,0.955655455589294,0.409914553165436,1.09677720069885
7.49739135719148,1.09576273068618,5.06909471609465,4.75624751557551,0.956410646438599,0.410256147384644,1.09785509109497
7.49739135719148,1.09576273068618,5.06909471609465,4.75624751557551,0.95715993642807,0.410595268011093,1.09892702102661
7.49739135719148,1.09576273068618,5.06909471609465,4.75624751557551,0.957903325557709,0.410931915044785,1.09999310970306
7.49739135719148,1.09576273068618,5.06909471609465,4.75624751557551,0.958640873432159,0.411266088485718,1.10105323791504
7.49739135719148,1.09576273068618,5.06909471609465,4.75624751557551,0.959372580051422,0.411597788333893,1.10210752487183
7.49739135719148,1.09576273068618,5.06909471609465,4.75624751557551,0.960098385810852,0.41192701458931,1.10315597057343
7.49739135719148,1.09576273068618,5.06909471609465,4.75624751557551,0.960818350315094,0.412253767251968,1.10419845581055
7.49739135719148,1.09576273068618,5.06909471609465,4.75624751557551,0.961532473564148,0.412578046321869,1.10523509979248
7.49739135719148,1.09576273068618,5.06909471609465,4.75624751557551,0.962240755558014,0.412899881601334,1.10626590251923
7.49739135719148,1.09576273068618,5.06909471609465,4.75624751557551,0.962943196296692,0.41321924328804,1.10729086399078
7.49739135719148,1.09576273068618,5.06909471609465,4.75624751557551,0.963639855384827,0.413536161184311,1.10830998420715
7.49739135719148,1.09576273068618,5.06909471609465,4.75624751557551,0.964330673217773,0.413850635290146,1.10932326316833
7.49739135719148,1.09576273068618,5.06909471609465,4.75624751557551,0.965015709400177,0.414162665605545,1.11033070087433
7.49739135719148,1.09576273068618,5.06909471609465,4.75624751557551,0.965694963932037,0.414472252130508,1.11133229732513
7.49739135719148,1.09576273068618,5.06909471609465,4.75624751557551,0.966368436813354,0.414779394865036,1.11232805252075
7.49739135719148,1.09576273068618,5.06909471609465,4.75624751557551,0.967036068439484,0.415084093809128,1.11331808567047
7.49739135719148,1.09576273068618,5.06909471609465,4.75624751557551,0.967697978019714,0.415386348962784,1.114302277565
7.49739135719148,1.09576273068618,5.06909471609465,4.75624751557551,0.968354105949402,0.415686160326004,1.11528062820435
7.49739135719148,1.09576273068618,5.06909471609465,4.75624751557551,0.969004452228546,0.415983557701111,1.11625325679779
7.49739135719148,1.09576273068618,5.06909471609465,4.75624751557551,0.969649076461792,0.416278511285782,1.11722004413605
7.49739135719148,1.09576273068618,5.06909471609465,4.75624751557551,0.970287919044495,0.416571050882339,1.11818110942841
7.49739135719148,1.09576273068618,5.06909471609465,4.75624751557551,0.970921039581299,0.416861176490784,1.11913645267487
7.49739135719148,1.09576273068618,5.06909471609465,4.75624751557551,0.971548438072205,0.417148888111115,1.12008595466614
7.49739135719148,1.09576273068618,5.06909471609465,4.75624751557551,0.972170114517212,0.41743415594101,1.12102973461151
7.49739135719148,1.09576273068618,5.06909471609465,4.75624751557551,0.972786068916321,0.417717009782791,1.12196779251099
7.49739135719148,1.09576273068618,5.06909471609465,4.75624751557551,0.973396301269531,0.417997479438782,1.12290012836456
7.49739135719148,1.09576273068618,5.06909471609465,4.75624751557551,0.974000811576843,0.418275535106659,1.12382674217224
7.49739135719148,1.09576273068618,5.06909471609465,4.75624751557551,0.974599659442902,0.418551176786423,1.12474763393402
7.49739135719148,1.09576273068618,5.06909471609465,4.75624751557551,0.975192785263062,0.418824404478073,1.1256628036499
7.49739135719148,1.09576273068618,5.06909471609465,4.75624751557551,0.975780248641968,0.419095247983933,1.12657225131989
7.49739135719148,1.09576273068618,5.06909471609465,4.75624751557551,0.97636204957962,0.419363707304001,1.12747597694397
7.49739135719148,1.09576273068618,5.06909471609465,4.75624751557551,0.976938188076019,0.419629752635956,1.12837409973145
7.49739135719148,1.09576273068618,5.06909471609465,4.75624751557551,0.977508664131165,0.41989341378212,1.12926650047302
7.49739135719148,1.09576273068618,5.06909471609465,4.75624751557551,0.978073477745056,0.420154690742493,1.1301531791687
7.49739135719148,1.09576273068618,5.06909471609465,4.75624751557551,0.978632628917694,0.420413583517075,1.13103425502777
7.49739135719148,1.09576273068618,5.06909471609465,4.75624751557551,0.979186177253723,0.420670092105865,1.13190960884094
7.49739135719148,1.09576273068618,5.06909471609465,4.75624751557551,0.979734063148499,0.420924216508865,1.1327793598175
7.49739135719148,1.09576273068618,5.06909471609465,4.75624751557551,0.980276346206665,0.421175956726074,1.13364338874817
7.49739135719148,1.09576273068618,5.06909471609465,4.75624751557551,0.980813026428223,0.421425342559814,1.13450181484222
7.49739135719148,1.09576273068618,5.06909471609465,4.75624751557551,0.981344103813171,0.421672344207764,1.13535463809967
7.49739135719148,1.09576273068618,5.06909471609465,4.75624751557551,0.981869578361511,0.421916991472244,1.13620185852051
7.49739135719148,1.09576273068618,5.06909471609465,4.75624751557551,0.982389450073242,0.422159254550934,1.13704347610474
7.49739135719148,1.09576273068618,5.06909471609465,4.75624751557551,0.982903718948364,0.422399163246155,1.13787949085236
7.49739135719148,1.09576273068618,5.06909471609465,4.75624751557551,0.983412384986877,0.422636717557907,1.13870990276337
7.49739135719148,1.09576273068618,5.06909471609465,4.75624751557551,0.983915507793427,0.422871917486191,1.13953471183777
7.49739135719148,1.09576273068618,5.06909471609465,4.75624751557551,0.984413087368011,0.423104763031006,1.14035391807556
7.49739135719148,1.09576273068618,5.06909471609465,4.75624751557551,0.984905064105988,0.423335254192352,1.14116752147675
7.49739135719148,1.09576273068618,5.06909471609465,4.75624751557551,0.985391497612,0.42356339097023,1.14197552204132
7.49739135719148,1.09576273068618,5.06909471609465,4.75624751557551,0.985872387886047,0.423789203166962,1.14277803897858
7.49739135719148,1.09576273068618,5.06909471609465,4.75624751557551,0.986347734928131,0.424012660980225,1.14357495307922
7.49739135719148,1.09576273068618,5.06909471609465,4.75624751557551,0.986817538738251,0.424233764410019,1.14436626434326
7.49739135719148,1.09576273068618,5.06909471609465,4.75624751557551,0.987281858921051,0.424452543258667,1.14515209197998
7.49739135719148,1.09576273068618,5.06909471609465,4.75624751557551,0.987740635871887,0.424668997526169,1.14593231678009
7.49739135719148,1.09576273068618,5.06909471609465,4.75624751557551,0.988193929195404,0.424883127212524,1.14670705795288
7.49739135719148,1.09576273068618,5.06909471609465,4.75624751557551,0.988641738891602,0.425094902515411,1.14747631549835
7.49739135719148,1.09576273068618,5.06909471609465,4.75624751557551,0.989084005355835,0.425304353237152,1.14823997020721
7.49739135719148,1.09576273068618,5.06909471609465,4.75624751557551,0.989520788192749,0.425511479377747,1.14899814128876
7.49739135719148,1.09576273068618,5.06909471609465,4.75624751557551,0.989952087402344,0.425716310739517,1.14975082874298
7.49739135719148,1.09576273068618,5.06909471609465,4.75624751557551,0.990377962589264,0.425918817520142,1.15049803256989
7.49739135719148,1.09576273068618,5.06909471609465,4.75624751557551,0.990798354148865,0.42611899971962,1.15123975276947
7.49739135719148,1.09576273068618,5.06909471609465,4.75624751557551,0.991213262081146,0.426316887140274,1.15197598934174
7.49739135719148,1.09576273068618,5.06909471609465,4.75624751557551,0.991622745990753,0.426512449979782,1.15270674228668
7.49739135719148,1.09576273068618,5.06909471609465,4.75624751557551,0.992026746273041,0.426705718040466,1.15343201160431
7.49739135719148,1.09576273068618,5.06909471609465,4.75624751557551,0.992425322532654,0.426896691322327,1.15415191650391
7.49739135719148,1.09576273068618,5.06909471609465,4.75624751557551,0.992818474769592,0.427085340023041,1.15486633777618
7.49739135719148,1.09576273068618,5.06909471609465,4.75624751557551,0.993206202983856,0.427271693944931,1.15557527542114
7.49739135719148,1.09576273068618,5.06909471609465,4.75624751557551,0.993588507175446,0.427455753087997,1.15627884864807
7.49739135719148,1.09576273068618,5.06909471609465,4.75624751557551,0.99396538734436,0.42763751745224,1.15697693824768
7.49739135719148,1.09576273068618,5.06909471609465,4.75624751557551,0.994336903095245,0.427817016839981,1.15766966342926
7.49739135719148,1.09576273068618,5.06909471609465,4.75624751557551,0.994702994823456,0.427994221448898,1.15835690498352
7.49739135719148,1.09576273068618,5.06909471609465,4.75624751557551,0.995063722133636,0.428169131278992,1.15903878211975
7.49739135719148,1.09576273068618,5.06909471609465,4.75624751557551,0.995419085025787,0.428341776132584,1.15971517562866
7.49739135719148,1.09576273068618,5.06909471609465,4.75624751557551,0.995769083499908,0.428512126207352,1.16038620471954
7.49739135719148,1.09576273068618,5.06909471609465,4.75624751557551,0.996113657951355,0.428680211305618,1.1610518693924
7.49739135719148,1.09576273068618,5.06909471609465,4.75624751557551,0.996452927589417,0.428846031427383,1.16171216964722
7.49739135719148,1.09576273068618,5.06909471609465,4.75624751557551,0.996786832809448,0.429009586572647,1.16236710548401
7.49739135719148,1.09576273068618,5.06909471609465,4.75624751557551,0.99711537361145,0.429170876741409,1.16301667690277
7.49739135719148,1.09576273068618,5.06909471609465,4.75624751557551,0.997438549995422,0.42932990193367,1.1636608839035
7.49739135719148,1.09576273068618,5.06909471609465,4.75624751557551,0.99775642156601,0.429486662149429,1.16429972648621
7.49739135719148,1.09576273068618,5.06909471609465,4.75624751557551,0.998068988323212,0.429641157388687,1.16493320465088
7.49739135719148,1.09576273068618,5.06909471609465,4.75624751557551,0.998376190662384,0.429793387651443,1.16556143760681
7.49739135719148,1.09576273068618,5.06909471609465,4.75624751557551,0.998678088188171,0.429943382740021,1.16618430614471
7.49739135719148,1.09576273068618,5.06909471609465,4.75624751557551,0.998974680900574,0.430091112852097,1.16680181026459
7.49739135719148,1.09576273068618,5.06909471609465,4.75624751557551,0.999266028404236,0.430236607789993,1.16741406917572
7.49739135719148,1.09576273068618,5.06909471609465,4.75624751557551,0.999552071094513,0.430379837751389,1.16802096366882
7.49739135719148,1.09576273068618,5.06909471609465,4.75624751557551,0.999832808971405,0.430520832538605,1.16862261295319
7.49739135719148,1.09576273068618,5.06909471609465,4.75624751557551,1.00010824203491,0.430659592151642,1.16921889781952
7.49739135719148,1.09576273068618,5.06909471609465,4.75624751557551,1.00037848949432,0.4307961165905,1.16980993747711
7.49739135719148,1.09576273068618,5.06909471609465,4.75624751557551,1.00064337253571,0.430930405855179,1.17039573192596
7.49739135719148,1.09576273068618,5.06909471609465,4.75624751557551,1.00090301036835,0.431062459945679,1.17097616195679
7.49739135719148,1.09576273068618,5.06909471609465,4.75624751557551,1.00115740299225,0.431192278862,1.17155134677887
7.49739135719148,1.09576273068618,5.06909471609465,4.75624751557551,1.00140655040741,0.431319892406464,1.17212128639221
7.49739135719148,1.09576273068618,5.06909471609465,4.75624751557551,1.00165057182312,0.431445270776749,1.17268598079681
7.49739135719148,1.09576273068618,5.06909471609465,4.75624751557551,1.00188934803009,0.431568443775177,1.17324542999268
7.49739135719148,1.09576273068618,5.06909471609465,4.75624751557551,1.00212287902832,0.431689381599426,1.1737996339798
7.49739135719148,1.09576273068618,5.06909471609465,4.75624751557551,1.00235116481781,0.431808114051819,1.17434859275818
7.49739135719148,1.09576273068618,5.06909471609465,4.75624751557551,1.00257420539856,0.431924641132355,1.17489242553711
7.49739135719148,1.09576273068618,5.06909471609465,4.75624751557551,1.00279211997986,0.432038962841034,1.1754310131073
7.49739135719148,1.09576273068618,5.06909471609465,4.75624751557551,1.00300478935242,0.432151079177856,1.17596435546875
7.49739135719148,1.09576273068618,5.06909471609465,4.75624751557551,1.00321233272552,0.432260990142822,1.17649257183075
7.49739135719148,1.09576273068618,5.06909471609465,4.75624751557551,1.00341463088989,0.432368695735931,1.17701554298401
7.49739135719148,1.09576273068618,5.06909471609465,4.75624751557551,1.00361180305481,0.432474195957184,1.17753326892853
7.49739135719148,1.09576273068618,5.06909471609465,4.75624751557551,1.00380384922028,0.432577520608902,1.1780458688736
7.49739135719148,1.09576273068618,5.06909471609465,4.75624751557551,1.003990650177,0.432678639888763,1.17855334281921
7.49739135719148,1.09576273068618,5.06909471609465,4.75624751557551,1.00417232513428,0.432777553796768,1.17905557155609
7.49739135719148,1.09576273068618,5.06909471609465,4.75624751557551,1.0043488740921,0.432874292135239,1.17955267429352
7.49739135719148,1.09576273068618,5.06909471609465,4.75624751557551,1.00452029705048,0.432968854904175,1.18004465103149
7.49739135719148,1.09576273068618,5.06909471609465,4.75624751557551,1.0046865940094,0.433061242103577,1.18053150177002
7.49739135719148,1.09576273068618,5.06909471609465,4.75624751557551,1.00484776496887,0.433151453733444,1.18101322650909
7.49739135719148,1.09576273068618,5.06909471609465,4.75624751557551,1.00500380992889,0.433239459991455,1.18148982524872
7.49739135719148,1.09576273068618,5.06909471609465,4.75624751557551,1.00515472888947,0.433325320482254,1.18196129798889
7.49739135719148,1.09576273068618,5.06909471609465,4.75624751557551,1.00530052185059,0.433409005403519,1.18242764472961
7.49739135719148,1.09576273068618,5.06909471609465,4.75624751557551,1.00544130802155,0.433490514755249,1.18288886547089
7.49739135719148,1.09576273068618,5.06909471609465,4.75624751557551,1.00557696819305,0.433569848537445,1.18334496021271
7.49739135719148,1.09576273068618,5.06909471609465,4.75624751557551,1.00570750236511,0.433647036552429,1.18379592895508
7.49739135719148,1.09576273068618,5.06909471609465,4.75624751557551,1.00583302974701,0.433722048997879,1.18424189090729
7.49739135719148,1.09576273068618,5.06909471609465,4.75624751557551,1.00595343112946,0.433794915676117,1.18468272686005
7.49739135719148,1.09576273068618,5.06909471609465,4.75624751557551,1.00606882572174,0.433865636587143,1.18511843681335
7.49739135719148,1.09576273068618,5.06909471609465,4.75624751557551,1.00617909431458,0.433934181928635,1.1855491399765
7.49739135719148,1.09576273068618,5.06909471609465,4.75624751557551,1.00628435611725,0.434000581502914,1.1859747171402
7.49739135719148,1.09576273068618,5.06909471609465,4.75624751557551,1.00638461112976,0.434064835309982,1.18639528751373
7.49739135719148,1.09576273068618,5.06909471609465,4.75624751557551,1.00647974014282,0.434126943349838,1.18681085109711
7.49739135719148,1.09576273068618,5.06909471609465,4.75624751557551,1.00656986236572,0.434186935424805,1.18722128868103
7.49739135719148,1.09576273068618,5.06909471609465,4.75624751557551,1.00665497779846,0.434244781732559,1.18762671947479
7.49739135719148,1.09576273068618,5.06909471609465,4.75624751557551,1.00673508644104,0.434300482273102,1.18802714347839
7.49739135719148,1.09576273068618,5.06909471609465,4.75624751557551,1.00681018829346,0.434354066848755,1.18842256069183
7.49739135719148,1.09576273068618,5.06909471609465,4.75624751557551,1.00688028335571,0.434405505657196,1.18881297111511
7.49739135719148,1.09576273068618,5.06909471609465,4.75624751557551,1.00694537162781,0.434454828500748,1.18919837474823
7.49739135719148,1.09576273068618,5.06909471609465,4.75624751557551,1.00700545310974,0.434502005577087,1.18957877159119
7.49739135719148,1.09576273068618,5.06909471609465,4.75624751557551,1.0070606470108,0.434547066688538,1.18995416164398
7.49739135719148,1.09576273068618,5.06909471609465,4.75624751557551,1.0071108341217,0.434590011835098,1.19032454490662
7.49739135719148,1.09576273068618,5.06909471609465,4.75624751557551,1.00715601444244,0.434630841016769,1.19069004058838
7.49739135719148,1.09576273068618,5.06909471609465,4.75624751557551,1.00719630718231,0.434669554233551,1.19105052947998
7.49739135719148,1.09576273068618,5.06909471609465,4.75624751557551,1.00723159313202,0.434706151485443,1.19140601158142
7.49739135719148,1.09576273068618,5.06909471609465,4.75624751557551,1.00726199150085,0.434740662574768,1.19175660610199
7.49739135719148,1.09576273068618,5.06909471609465,4.75624751557551,1.00728738307953,0.434773057699203,1.1921021938324
7.49739135719148,1.09576273068618,5.06909471609465,4.75624751557551,1.00730788707733,0.434803336858749,1.19244289398193
7.49739135719148,1.09576273068618,5.06909471609465,4.75624751557551,1.00732338428497,0.434831529855728,1.19277858734131
7.49739135719148,1.09576273068618,5.06909471609465,4.75624751557551,1.00733399391174,0.434857606887817,1.19310939311981
7.49739135719148,1.09576273068618,5.06909471609465,4.75624751557551,1.00733971595764,0.434881597757339,1.19343531131744
7.49739135719148,1.09576273068618,5.06909471609465,4.75624751557551,1.00734055042267,0.434903502464294,1.19375622272491
7.49739135719148,1.09576273068618,5.06909471609465,4.75624751557551,1.00733649730682,0.434923321008682,1.19407224655151
7.49739135719148,1.09576273068618,5.06909471609465,4.75624751557551,1.00732755661011,0.434941053390503,1.19438338279724
7.49739135719148,1.09576273068618,5.06909471609465,4.75624751557551,1.00731372833252,0.434956699609756,1.1946896314621
7.49739135719148,1.09576273068618,5.06909471609465,4.75624751557551,1.00729501247406,0.434970259666443,1.19499099254608
7.49739135719148,1.09576273068618,5.06909471609465,4.75624751557551,1.00727140903473,0.434981733560562,1.19528746604919
7.49739135719148,1.09576273068618,5.06909471609465,4.75624751557551,1.00724291801453,0.434991121292114,1.19557905197144
7.49739135719148,1.09576273068618,5.06909471609465,4.75624751557551,1.00720953941345,0.434998452663422,1.19586575031281
7.49739135719148,1.09576273068618,5.06909471609465,4.75624751557551,1.0071713924408,0.435003697872162,1.19614768028259
7.49739135719148,1.09576273068618,5.06909471609465,4.75624751557551,1.00712835788727,0.435006886720657,1.19642472267151
7.49739135719148,1.09576273068618,5.06909471609465,4.75624751557551,1.00708043575287,0.435008019208908,1.19669687747955
7.49739135719148,1.09576273068618,5.06909471609465,4.75624751557551,1.00702774524689,0.435007065534592,1.19696426391602
7.49739135719148,1.09576273068618,5.06909471609465,4.75624751557551,1.00697016716003,0.435004055500031,1.19722676277161
7.49739135719148,1.09576273068618,5.06909471609465,4.75624751557551,1.0069078207016,0.434998989105225,1.19748437404633
7.49739135719148,1.09576273068618,5.06909471609465,4.75624751557551,1.00684070587158,0.434991866350174,1.19773721694946
7.49739135719148,1.09576273068618,5.06909471609465,4.75624751557551,1.00676870346069,0.434982687234879,1.19798529148102
7.49739135719148,1.09576273068618,5.06909471609465,4.75624751557551,1.00669193267822,0.434971451759338,1.1982284784317
7.49739135719148,1.09576273068618,5.06909471609465,4.75624751557551,1.00661039352417,0.434958189725876,1.1984668970108
7.49739135719148,1.09576273068618,5.06909471609465,4.75624751557551,1.00652408599854,0.434942871332169,1.19870054721832
7.49739135719148,1.09576273068618,5.06909471609465,4.75624751557551,1.00643301010132,0.434925526380539,1.19892942905426
7.49739135719148,1.09576273068618,5.06909471609465,4.75624751557551,1.00633716583252,0.434906125068665,1.19915354251862
7.49739135719148,1.09576273068618,5.06909471609465,4.75624751557551,1.00623655319214,0.434884697198868,1.19937288761139
7.49739135719148,1.09576273068618,5.06909471609465,4.75624751557551,1.00613117218018,0.434861242771149,1.19958746433258
7.49739135719148,1.09576273068618,5.06909471609465,4.75624751557551,1.00602102279663,0.434835731983185,1.19979727268219
7.49739135719148,1.09576273068618,5.06909471609465,4.75624751557551,1.0059061050415,0.434808194637299,1.20000231266022
7.49739135719148,1.09576273068618,5.06909471609465,4.75624751557551,1.00578641891479,0.43477863073349,1.20020258426666
7.49739135719148,1.09576273068618,5.06909471609465,4.75624751557551,1.00566208362579,0.434747040271759,1.20039808750153
7.49739135719148,1.09576273068618,5.06909471609465,4.75624751557551,1.00553297996521,0.434713453054428,1.2005889415741
7.49739135719148,1.09576273068618,5.06909471609465,4.75624751557551,1.00539910793304,0.434677839279175,1.20077502727509
7.49739135719148,1.09576273068618,5.06909471609465,4.75624751557551,1.00526058673859,0.434640198945999,1.20095634460449
7.49739135719148,1.09576273068618,5.06909471609465,4.75624751557551,1.00511729717255,0.434600561857224,1.20113301277161
7.49739135719148,1.09576273068618,5.06909471609465,4.75624751557551,1.00496935844421,0.434558898210526,1.20130491256714
7.49739135719148,1.09576273068618,5.06909471609465,4.75624751557551,1.00481677055359,0.434515237808228,1.20147216320038
7.49739135719148,1.09576273068618,5.06909471609465,4.75624751557551,1.00465941429138,0.434469550848007,1.20163476467133
7.49739135719148,1.09576273068618,5.06909471609465,4.75624751557551,1.00449740886688,0.434421867132187,1.20179259777069
7.49739135719148,1.09576273068618,5.06909471609465,4.75624751557551,1.00433075428009,0.434372186660767,1.20194578170776
7.49739135719148,1.09576273068618,5.06909471609465,4.75624751557551,1.00415945053101,0.434320509433746,1.20209431648254
7.49739135719148,1.09576273068618,5.06909471609465,4.75624751557551,1.00398349761963,0.434266835451126,1.20223820209503
7.49739135719148,1.09576273068618,5.06909471609465,4.75624751557551,1.00380277633667,0.434211164712906,1.20237743854523
7.49739135719148,1.09576273068618,5.06909471609465,4.75624751557551,1.00361740589142,0.434153497219086,1.20251202583313
7.49739135719148,1.09576273068618,5.06909471609465,4.75624751557551,1.00342750549316,0.434093862771988,1.20264196395874
7.49739135719148,1.09576273068618,5.06909471609465,4.75624751557551,1.00323295593262,0.43403223156929,1.20276725292206
7.49739135719148,1.09576273068618,5.06909471609465,4.75624751557551,1.00303375720978,0.433968633413315,1.20288789272308
7.49739135719148,1.09576273068618,5.06909471609465,4.75624751557551,1.00282990932465,0.43390303850174,1.20300388336182
7.49739135719148,1.09576273068618,5.06909471609465,4.75624751557551,1.00262141227722,0.433835476636887,1.20311522483826
7.49739135719148,1.09576273068618,5.06909471609465,4.75624751557551,1.00240838527679,0.433765947818756,1.20322203636169
7.49739135719148,1.09576273068618,5.06909471609465,4.75624751557551,1.00219070911407,0.433694422245026,1.20332419872284
7.49739135719148,1.09576273068618,5.06909471609465,4.75624751557551,1.00196850299835,0.433620929718018,1.20342171192169
7.49739135719148,1.09576273068618,5.06909471609465,4.75624751557551,1.00174164772034,0.433545470237732,1.20351469516754
7.49739135719148,1.09576273068618,5.06909471609465,4.75624751557551,1.00151026248932,0.433468043804169,1.2036030292511
7.49739135719148,1.09576273068618,5.06909471609465,4.75624751557551,1.00127422809601,0.43338868021965,1.20368683338165
7.49739135719148,1.09576273068618,5.06909471609465,4.75624751557551,1.00103366374969,0.433307349681854,1.2037661075592
7.49739135719148,1.09576273068618,5.06909471609465,4.75624751557551,1.00078856945038,0.433224052190781,1.20384073257446
7.49739135719148,1.09576273068618,5.06909471609465,4.75624751557551,1.00053882598877,0.433138817548752,1.20391082763672
7.49739135719148,1.09576273068618,5.06909471609465,4.75624751557551,1.00028455257416,0.433051615953445,1.20397639274597
7.49739135719148,1.09576273068618,5.06909471609465,4.75624751557551,1.00002574920654,0.432962477207184,1.20403742790222
7.49739135719148,1.09576273068618,5.06909471609465,4.75624751557551,0.999762415885925,0.432871371507645,1.20409393310547
7.49739135719148,1.09576273068618,5.06909471609465,4.75624751557551,0.999494552612305,0.43277832865715,1.20414590835571
7.49739135719148,1.09576273068618,5.06909471609465,4.75624751557551,0.999222159385681,0.432683348655701,1.20419335365295
7.49739135719148,1.09576273068618,5.06909471609465,4.75624751557551,0.998945295810699,0.432586431503296,1.20423626899719
7.49739135719148,1.09576273068618,5.06909471609465,4.75624751557551,0.998663902282715,0.432487577199936,1.20427465438843
7.49739135719148,1.09576273068618,5.06909471609465,4.75624751557551,0.998377978801727,0.432386785745621,1.20430850982666
7.49739135719148,1.09576273068618,5.06909471609465,4.75624751557551,0.998087584972382,0.43228405714035,1.20433783531189
7.49739135719148,1.09576273068618,5.06909471609465,4.75624751557551,0.997792720794678,0.432179421186447,1.20436275005341
7.49739135719148,1.09576273068618,5.06909471609465,4.75624751557551,0.997493326663971,0.432072848081589,1.20438313484192
7.49739135719148,1.09576273068618,5.06909471609465,4.75624751557551,0.997189462184906,0.431964337825775,1.20439898967743
7.49739135719148,1.09576273068618,5.06909471609465,4.75624751557551,0.996881127357483,0.431853920221329,1.20441043376923
7.49739135719148,1.09576273068618,5.06909471609465,4.75624751557551,0.996568322181702,0.43174159526825,1.20441734790802
7.49739135719148,1.09576273068618,5.06909471609465,4.75624751557551,0.996251106262207,0.431627333164215,1.2044198513031
7.49739135719148,1.09576273068618,5.06909471609465,4.75624751557551,0.995929419994354,0.431511163711548,1.20441794395447
7.49739135719148,1.09576273068618,5.06909471609465,4.75624751557551,0.995603263378143,0.431393086910248,1.20441150665283
7.49739135719148,1.09576273068618,5.06909471609465,4.75624751557551,0.995272696018219,0.431273102760315,1.20440065860748
7.49739135719148,1.09576273068618,5.06909471609465,4.75624751557551,0.994937658309937,0.431151211261749,1.20438539981842
7.49739135719148,1.09576273068618,5.06909471609465,4.75624751557551,0.994598209857941,0.431027412414551,1.20436573028564
7.49739135719148,1.09576273068618,5.06909471609465,4.75624751557551,0.994254350662231,0.430901706218719,1.20434165000916
7.49739135719148,1.09576273068618,5.06909471609465,4.75624751557551,0.993906080722809,0.430774122476578,1.20431315898895
7.49739135719148,1.09576273068618,5.06909471609465,4.75624751557551,0.993553400039673,0.430644631385803,1.20428025722504
7.49739135719148,1.09576273068618,5.06909471609465,4.75624751557551,0.993196308612823,0.430513262748718,1.20424294471741
7.49739135719148,1.09576273068618,5.06909471609465,4.75624751557551,0.992834806442261,0.430379986763,1.20420122146606
7.49739135719148,1.09576273068618,5.06909471609465,4.75624751557551,0.992468953132629,0.430244833230972,1.20415508747101
7.49739135719148,1.09576273068618,5.06909471609465,4.75624751557551,0.992098689079285,0.430107802152634,1.20410454273224
7.49739135719148,1.09576273068618,5.06909471609465,4.75624751557551,0.991724073886871,0.429968863725662,1.20404970645905
7.49739135719148,1.09576273068618,5.06909471609465,4.75624751557551,0.991345047950745,0.42982804775238,1.20399045944214
7.49739135719148,1.09576273068618,5.06909471609465,4.75624751557551,0.990961670875549,0.429685354232788,1.20392680168152
7.49739135719148,1.09576273068618,5.06909471609465,4.75624751557551,0.990573942661285,0.429540783166885,1.20385885238647
7.49739135719148,1.09576273068618,5.06909471609465,4.75624751557551,0.990181863307953,0.429394334554672,1.20378649234772
7.49739135719148,1.09576273068618,5.06909471609465,4.75624751557551,0.989785432815552,0.429246038198471,1.20370984077454
7.49739135719148,1.09576273068618,5.06909471609465,4.75624751557551,0.989384710788727,0.429095864295959,1.20362889766693
7.49739135719148,1.09576273068618,5.06909471609465,4.75624751557551,0.988979637622833,0.428943812847137,1.20354354381561
7.49739135719148,1.09576273068618,5.06909471609465,4.75624751557551,0.988570213317871,0.428789913654327,1.20345389842987
7.49739135719148,1.09576273068618,5.06909471609465,4.75624751557551,0.988156497478485,0.428634166717529,1.2033599615097
7.49739135719148,1.09576273068618,5.06909471609465,4.75624751557551,0.987738430500031,0.428476542234421,1.20326173305511
7.49739135719148,1.09576273068618,5.06909471609465,4.75624751557551,0.987316071987152,0.428317070007324,1.20315909385681
7.49739135719148,1.09576273068618,5.06909471609465,4.75624751557551,0.98688942193985,0.42815575003624,1.20305216312408
7.49739135719148,1.09576273068618,5.06909471609465,4.75624751557551,0.986458480358124,0.427992582321167,1.20294094085693
7.49739135719148,1.09576273068618,5.06909471609465,4.75624751557551,0.986023247241974,0.427827566862106,1.20282542705536
7.49739135719148,1.09576273068618,5.06909471609465,4.75624751557551,0.9855837225914,0.427660703659058,1.20270574092865
7.49739135719148,1.09576273068618,5.06909471609465,4.75624751557551,0.985139966011047,0.427491992712021,1.20258176326752
7.49739135719148,1.09576273068618,5.06909471609465,4.75624751557551,0.984691917896271,0.427321434020996,1.20245349407196
7.49739135719148,1.09576273068618,5.06909471609465,4.75624751557551,0.98423957824707,0.427149027585983,1.20232093334198
7.49739135719148,1.09576273068618,5.06909471609465,4.75624751557551,0.983783006668091,0.426974803209305,1.20218408107758
7.49739135719148,1.09576273068618,5.06909471609465,4.75624751557551,0.983322203159332,0.426798731088638,1.20204305648804
7.49739135719148,1.09576273068618,5.06909471609465,4.75624751557551,0.982857167720795,0.426620841026306,1.20189774036407
7.49739135719148,1.09576273068618,5.06909471609465,4.75624751557551,0.982387900352478,0.426441133022308,1.20174825191498
7.49739135719148,1.09576273068618,5.06909471609465,4.75624751557551,0.981914401054382,0.426259577274323,1.20159447193146
7.49739135719148,1.09576273068618,5.06909471609465,4.75624751557551,0.981436669826508,0.426076203584671,1.2014365196228
7.49739135719148,1.09576273068618,5.06909471609465,4.75624751557551,0.980954706668854,0.425891011953354,1.20127439498901
7.49739135719148,1.09576273068618,5.06909471609465,4.75624751557551,0.980468511581421,0.425704002380371,1.2011079788208
7.49739135719148,1.09576273068618,5.06909471609465,4.75624751557551,0.979978144168854,0.425515174865723,1.20093739032745
7.49739135719148,1.09576273068618,5.06909471609465,4.75624751557551,0.979483544826508,0.425324529409409,1.20076262950897
7.49739135719148,1.09576273068618,5.06909471609465,4.75624751557551,0.978984773159027,0.425132095813751,1.20058369636536
7.49739135719148,1.09576273068618,5.06909471609465,4.75624751557551,0.978481829166412,0.424937844276428,1.20040059089661
7.49739135719148,1.09576273068618,5.06909471609465,4.75624751557551,0.977974653244019,0.42474177479744,1.20021331310272
7.49739135719148,1.09576273068618,5.06909471609465,4.75624751557551,0.97746330499649,0.424543917179108,1.2000218629837
7.49739135719148,1.09576273068618,5.06909471609465,4.75624751557551,0.976947784423828,0.42434424161911,1.19982624053955
7.49739135719148,1.09576273068618,5.06909471609465,4.75624751557551,0.976428151130676,0.424142777919769,1.19962644577026
7.49739135719148,1.09576273068618,5.06909471609465,4.75624751557551,0.97590434551239,0.423939526081085,1.19942247867584
7.49739135719148,1.09576273068618,5.06909471609465,4.75624751557551,0.97537636756897,0.423734486103058,1.19921433925629
7.49739135719148,1.09576273068618,5.06909471609465,4.75624751557551,0.97484427690506,0.423527657985687,1.1990020275116
7.49739135719148,1.09576273068618,5.06909471609465,4.75624751557551,0.974308013916016,0.423319041728973,1.19878566265106
7.49739135719148,1.09576273068618,5.06909471609465,4.75624751557551,0.973767638206482,0.423108637332916,1.19856512546539
7.49739135719148,1.09576273068618,5.06909471609465,4.75624751557551,0.973223149776459,0.422896444797516,1.19834053516388
7.49739135719148,1.09576273068618,5.06909471609465,4.75624751557551,0.972674548625946,0.422682464122772,1.19811177253723
7.49739135719148,1.09576273068618,5.06909471609465,4.75624751557551,0.972121834754944,0.422466695308685,1.19787895679474
7.49739135719148,1.09576273068618,5.06909471609465,4.75624751557551,0.971565008163452,0.422249168157578,1.19764196872711
7.49739135719148,1.09576273068618,5.06909471609465,4.75624751557551,0.971004068851471,0.422029852867126,1.19740092754364
7.49739135719148,1.09576273068618,5.06909471609465,4.75624751557551,0.970439016819,0.421808779239655,1.19715583324432
7.49739135719148,1.09576273068618,5.06909471609465,4.75624751557551,0.969869911670685,0.421585917472839,1.19690656661987
7.49739135719148,1.09576273068618,5.06909471609465,4.75624751557551,0.96929669380188,0.421361297369003,1.19665324687958
7.49739135719148,1.09576273068618,5.06909471609465,4.75624751557551,0.96871942281723,0.421134918928146,1.19639587402344
7.49739135719148,1.09576273068618,5.06909471609465,4.75624751557551,0.968138098716736,0.420906782150269,1.19613444805145
7.49739135719148,1.09576273068618,5.06909471609465,4.75624751557551,0.967552721500397,0.42067688703537,1.19586896896362
7.49739135719148,1.09576273068618,5.06909471609465,4.75624751557551,0.966963231563568,0.42044523358345,1.19559943675995
7.49739135719148,1.09576273068618,5.06909471609465,4.75624751557551,0.966369688510895,0.42021182179451,1.19532585144043
7.49739135719148,1.09576273068618,5.06909471609465,4.75624751557551,0.965772151947021,0.419976651668549,1.19504821300507
7.49739135719148,1.09576273068618,5.06909471609465,4.75624751557551,0.965170562267303,0.419739753007889,1.19476652145386
7.49739135719148,1.09576273068618,5.06909471609465,4.75624751557551,0.964564919471741,0.419501096010208,1.19448089599609
7.49739135719148,1.09576273068618,5.06909471609465,4.75624751557551,0.963955283164978,0.419260680675507,1.19419121742249
7.49739135719148,1.09576273068618,5.06909471609465,4.75624751557551,0.963341593742371,0.419018536806107,1.19389748573303
7.49739135719148,1.09576273068618,5.06909471609465,4.75624751557551,0.962723910808563,0.418774664402008,1.19359982013702
7.49739135719148,1.09576273068618,5.06909471609465,4.75624751557551,0.962102234363556,0.418529033660889,1.19329810142517
7.49739135719148,1.09576273068618,5.06909471609465,4.75624751557551,0.961476504802704,0.418281674385071,1.19299232959747
7.49739135719148,1.09576273068618,5.06909471609465,4.75624751557551,0.960846781730652,0.418032586574554,1.19268262386322
7.49739135719148,1.09576273068618,5.06909471609465,4.75624751557551,0.9602130651474,0.41778177022934,1.19236898422241
7.49739135719148,1.09576273068618,5.06909471609465,4.75624751557551,0.959575414657593,0.417529225349426,1.19205129146576
7.49739135719148,1.09576273068618,5.06909471609465,4.75624751557551,0.958933770656586,0.417274951934814,1.19172966480255
7.49739135719148,1.09576273068618,5.06909471609465,4.75624751557551,0.958288133144379,0.417018949985504,1.19140410423279
7.49739135719148,1.09576273068618,5.06909471609465,4.75624751557551,0.957638561725616,0.416761219501495,1.19107449054718
7.49739135719148,1.09576273068618,5.06909471609465,4.75624751557551,0.956984996795654,0.41650179028511,1.19074094295502
7.49739135719148,1.09576273068618,5.06909471609465,4.75624751557551,0.956327497959137,0.416240632534027,1.1904034614563
7.49739135719148,1.09576273068618,5.06909471609465,4.75624751557551,0.955666065216064,0.415977776050568,1.19006204605103
7.49739135719148,1.09576273068618,5.06909471609465,4.75624751557551,0.955000698566437,0.41571319103241,1.1897166967392
7.49739135719148,1.09576273068618,5.06909471609465,4.75624751557551,0.954331398010254,0.415446907281876,1.18936741352081
7.49739135719148,1.09576273068618,5.06909471609465,4.75624751557551,0.953658163547516,0.415178924798965,1.18901419639587
7.49739135719148,1.09576273068618,5.06909471609465,4.75624751557551,0.952980995178223,0.414909243583679,1.18865716457367
7.49739135719148,1.09576273068618,5.06909471609465,4.75624751557551,0.952299892902374,0.414637863636017,1.18829619884491
7.49739135719148,1.09576273068618,5.06909471609465,4.75624751557551,0.951614916324615,0.414364784955978,1.18793129920959
7.49739135719148,1.09576273068618,5.06909471609465,4.75624751557551,0.950926005840302,0.414090007543564,1.18756246566772
7.49739135719148,1.09576273068618,5.06909471609465,4.75624751557551,0.950233221054077,0.413813531398773,1.18718981742859
7.49739135719148,1.09576273068618,5.06909471609465,4.75624751557551,0.949536502361298,0.413535356521606,1.1868132352829
7.49739135719148,1.09576273068618,5.06909471609465,4.75624751557551,0.948835909366608,0.413255482912064,1.18643283843994
7.49739135719148,1.09576273068618,5.06909471609465,4.75624751557551,0.948131442070007,0.412973940372467,1.18604850769043
7.49739135719148,1.09576273068618,5.06909471609465,4.75624751557551,0.947423100471497,0.412690699100494,1.18566036224365
7.49739135719148,1.09576273068618,5.06909471609465,4.75624751557551,0.946710884571075,0.412405788898468,1.18526828289032
7.49739135719148,1.09576273068618,5.06909471609465,4.75624751557551,0.945994794368744,0.412119179964066,1.18487238883972
7.49739135719148,1.09576273068618,5.06909471609465,4.75624751557551,0.945274889469147,0.411830902099609,1.18447268009186
7.49739135719148,1.09576273068618,5.06909471609465,4.75624751557551,0.944551110267639,0.411540955305099,1.18406915664673
7.49739135719148,1.09576273068618,5.06909471609465,4.75624751557551,0.943823456764221,0.411249339580536,1.18366169929504
7.49739135719148,1.09576273068618,5.06909471609465,4.75624751557551,0.943091988563538,0.410956054925919,1.18325042724609
7.49739135719148,1.09576273068618,5.06909471609465,4.75624751557551,0.942356705665588,0.410661101341248,1.18283534049988
7.49739135719148,1.09576273068618,5.06909471609465,4.75624751557551,0.941617548465729,0.410364478826523,1.1824164390564
7.49739135719148,1.09576273068618,5.06909471609465,4.75624751557551,0.940874576568604,0.410066187381744,1.18199372291565
7.49739135719148,1.09576273068618,5.06909471609465,4.75624751557551,0.940127789974213,0.409766227006912,1.18156719207764
7.49739135719148,1.09576273068618,5.06909471609465,4.75624751557551,0.939377188682556,0.409464627504349,1.18113696575165
7.49739135719148,1.09576273068618,5.06909471609465,4.75624751557551,0.938622832298279,0.409161359071732,1.18070292472839
7.49739135719148,1.09576273068618,5.06909471609465,4.75624751557551,0.937919139862061,0.408880412578583,1.1802453994751
7.49739135719148,1.09576273068618,5.06909471609465,4.75624751557551,0.937320649623871,0.408645778894424,1.17974495887756
7.49739135719148,1.09576273068618,5.06909471609465,4.75624751557551,0.93682736158371,0.408457458019257,1.1792014837265
7.49739135719148,1.09576273068618,5.06909471609465,4.75624751557551,0.936439275741577,0.408315449953079,1.17862153053284
7.49739135719148,1.09576273068618,5.06909471609465,4.75624751557551,0.936156451702118,0.408219754695892,1.1780116558075
7.49739135719148,1.09576273068618,5.06909471609465,4.75624751557551,0.935978829860687,0.408170372247696,1.17737185955048
7.49739135719148,1.09576273068618,5.06909471609465,4.75624751557551,0.93590646982193,0.40816730260849,1.17670214176178
7.49739135719148,1.09576273068618,5.06909471609465,4.75624751557551,0.935939311981201,0.408210545778275,1.17600250244141
7.49739135719148,1.09576273068618,5.06909471609465,4.75624751557551,0.936073780059814,0.40829211473465,1.17530643939972
7.49739135719148,1.09576273068618,5.06909471609465,4.75624751557551,0.936306238174438,0.408404022455215,1.17464733123779
7.49739135719148,1.09576273068618,5.06909471609465,4.75624751557551,0.936636686325073,0.408546268939972,1.17402517795563
7.49739135719148,1.09576273068618,5.06909471609465,4.75624751557551,0.937065124511719,0.408718883991241,1.17343997955322
7.49739135719148,1.09576273068618,5.06909471609465,4.75624751557551,0.937591552734375,0.408921837806702,1.17289173603058
7.49739135719148,1.09576273068618,5.06909471609465,4.75624751557551,0.938218176364899,0.409160941839218,1.17236375808716
7.49739135719148,1.09576273068618,5.06909471609465,4.75624751557551,0.938947141170502,0.409442037343979,1.17183935642242
7.49739135719148,1.09576273068618,5.06909471609465,4.75624751557551,0.939778506755829,0.409765094518662,1.17131853103638
7.49739135719148,1.09576273068618,5.06909471609465,4.75624751557551,0.94071227312088,0.410130143165588,1.17080128192902
7.49739135719148,1.09576273068618,5.06909471609465,4.75624751557551,0.941748440265656,0.41053718328476,1.17028760910034
7.49739135719148,1.09576273068618,5.06909471609465,4.75624751557551,0.942862272262573,0.410960763692856,1.16977179050446
7.49739135719148,1.09576273068618,5.06909471609465,4.75624751557551,0.944029092788696,0.411375463008881,1.16924786567688
7.49739135719148,1.09576273068618,5.06909471609465,4.75624751557551,0.945248901844025,0.411781311035156,1.1687159538269
7.49739135719148,1.09576273068618,5.06909471609465,4.75624751557551,0.946467220783234,0.412154287099838,1.16819560527802
7.49739135719148,1.09576273068618,5.06909471609465,4.75624751557551,0.947629570960999,0.412470459938049,1.16770648956299
7.49739135719148,1.09576273068618,5.06909471609465,4.75624751557551,0.948757708072662,0.412761032581329,1.16720139980316
7.49739135719148,1.09576273068618,5.06909471609465,4.75624751557551,0.949873507022858,0.413057267665863,1.16662657260895
7.49739135719148,1.09576273068618,5.06909471609465,4.75624751557551,0.95097690820694,0.413359194993973,1.16597545146942
7.49739135719148,1.09576273068618,5.06909471609465,4.75624751557551,0.952067971229553,0.413666784763336,1.16524803638458
7.49739135719148,1.09576273068618,5.06909471609465,4.75624751557551,0.953146696090698,0.413980066776276,1.16444432735443
7.49739135719148,1.09576273068618,5.06909471609465,4.75624751557551,0.954211592674255,0.414269208908081,1.1635810136795
7.49739135719148,1.09576273068618,5.06909471609465,4.75624751557551,0.955264866352081,0.414512455463409,1.16264140605927
7.49739135719148,1.09576273068618,5.06909471609465,4.75624751557551,0.956310153007507,0.414717793464661,1.16159212589264
7.49739135719148,1.09576273068618,5.06909471609465,4.75624751557551,0.957347452640533,0.414885222911835,1.16043317317963
7.49739135719148,1.09576273068618,5.06909471609465,4.75624751557551,0.958376824855804,0.415014743804932,1.15916454792023
7.49739135719148,1.09576273068618,5.06909471609465,4.75624751557551,0.959366261959076,0.415104895830154,1.15780222415924
7.49739135719148,1.09576273068618,5.06909471609465,4.75624751557551,0.960281610488892,0.41514840722084,1.156378865242
7.49739135719148,1.09576273068618,5.06909471609465,4.75624751557551,0.961120665073395,0.415139496326447,1.15491127967834
7.49739135719148,1.09576273068618,5.06909471609465,4.75624751557551,0.96188348531723,0.415078163146973,1.15339946746826
7.49739135719148,1.09576273068618,5.06909471609465,4.75624751557551,0.962570071220398,0.414964377880096,1.15184342861176
7.49739135719148,1.09576273068618,5.06909471609465,4.75624751557551,0.963188409805298,0.414798885583878,1.15027356147766
7.49739135719148,1.09576273068618,5.06909471609465,4.75624751557551,0.963771224021912,0.414607852697372,1.14872634410858
7.49739135719148,1.09576273068618,5.06909471609465,4.75624751557551,0.964343190193176,0.4144167304039,1.1472076177597
7.49739135719148,1.09576273068618,5.06909471609465,4.75624751557551,0.964904367923737,0.414225488901138,1.14571726322174
7.49739135719148,1.09576273068618,5.06909471609465,4.75624751557551,0.965454697608948,0.414034157991409,1.14425539970398
7.49739135719148,1.09576273068618,5.06909471609465,4.75624751557551,0.965994954109192,0.41386017203331,1.14280080795288
7.49739135719148,1.09576273068618,5.06909471609465,4.75624751557551,0.966504037380219,0.413689702749252,1.14137983322144
7.49739135719148,1.09576273068618,5.06909471609465,4.75624751557551,0.966960191726685,0.413491547107697,1.14003956317902
7.49739135719148,1.09576273068618,5.06909471609465,4.75624751557551,0.96736341714859,0.41326567530632,1.13878011703491
7.49739135719148,1.09576273068618,5.06909471609465,4.75624751557551,0.967713713645935,0.413012087345123,1.13760149478912
7.49739135719148,1.09576273068618,5.06909471609465,4.75624751557551,0.968006014823914,0.412725001573563,1.13656389713287
7.49739135719148,1.09576273068618,5.06909471609465,4.75624751557551,0.96823662519455,0.412428379058838,1.13571107387543
7.49739135719148,1.09576273068618,5.06909471609465,4.75624751557551,0.968407094478607,0.412152022123337,1.13502621650696
7.49739135719148,1.09576273068618,5.06909471609465,4.75624751557551,0.968517363071442,0.411895930767059,1.13450932502747
7.49739135719148,1.09576273068618,5.06909471609465,4.75624751557551,0.968567490577698,0.411660104990005,1.13416039943695
7.49739135719148,1.09576273068618,5.06909471609465,4.75624751557551,0.968560338020325,0.411458343267441,1.13393378257751
7.49739135719148,1.09576273068618,5.06909471609465,4.75624751557551,0.968530833721161,0.411305904388428,1.13376760482788
7.49739135719148,1.09576273068618,5.06909471609465,4.75624751557551,0.968510925769806,0.411204278469086,1.13364589214325
7.49739135719148,1.09576273068618,5.06909471609465,4.75624751557551,0.96850061416626,0.411153435707092,1.13356876373291
7.49739135719148,1.09576273068618,5.06909471609465,4.75624751557551,0.968499898910522,0.411153376102448,1.13353610038757
7.49739135719148,1.09576273068618,5.06909471609465,4.75624751557551,0.968531370162964,0.411207765340805,1.13358795642853
7.49739135719148,1.09576273068618,5.06909471609465,4.75624751557551,0.968609511852264,0.411319494247437,1.13373374938965
7.49739135719148,1.09576273068618,5.06909471609465,4.75624751557551,0.968726336956024,0.411487817764282,1.13394296169281
7.49739135719148,1.09576273068618,5.06909471609465,4.75624751557551,0.968881845474243,0.411712765693665,1.13421559333801
7.49739135719148,1.09576273068618,5.06909471609465,4.75624751557551,0.969076097011566,0.411994338035584,1.13455164432526
7.49739135719148,1.09576273068618,5.06909471609465,4.75624751557551,0.969282865524292,0.412355780601501,1.13492572307587
7.49739135719148,1.09576273068618,5.06909471609465,4.75624751557551,0.969475328922272,0.412802904844284,1.13533341884613
7.49739135719148,1.09576273068618,5.06909471609465,4.75624751557551,0.969652771949768,0.413318276405334,1.1357958316803
7.49739135719148,1.09576273068618,5.06909471609465,4.75624751557551,0.969815135002136,0.413901925086975,1.13631296157837
7.49739135719148,1.09576273068618,5.06909471609465,4.75624751557551,0.969962477684021,0.414553821086884,1.13688492774963
7.49739135719148,1.09576273068618,5.06909471609465,4.75624751557551,0.970099866390228,0.415260165929794,1.13748836517334
7.49739135719148,1.09576273068618,5.06909471609465,4.75624751557551,0.970237493515015,0.416012972593308,1.13803970813751
7.49739135719148,1.09576273068618,5.06909471609465,4.75624751557551,0.970380485057831,0.416818052530289,1.13847875595093
7.49739135719148,1.09576273068618,5.06909471609465,4.75624751557551,0.970528781414032,0.417675405740738,1.1388053894043
7.49739135719148,1.09576273068618,5.06909471609465,4.75624751557551,0.970682442188263,0.418585062026978,1.13901972770691
7.49739135719148,1.09576273068618,5.06909471609465,4.75624751557551,0.970871210098267,0.419533908367157,1.13914060592651
7.49739135719148,1.09576273068618,5.06909471609465,4.75624751557551,0.971122026443481,0.420495092868805,1.13923263549805
7.49739135719148,1.09576273068618,5.06909471609465,4.75624751557551,0.971431970596313,0.421454787254334,1.13934171199799
7.49739135719148,1.09576273068618,5.06909471609465,4.75624751557551,0.971801042556763,0.422412991523743,1.13946771621704
7.49739135719148,1.09576273068618,5.06909471609465,4.75624751557551,0.972229242324829,0.423369735479355,1.1396107673645
7.49739135719148,1.09576273068618,5.06909471609465,4.75624751557551,0.972731113433838,0.424277037382126,1.13974034786224
7.49739135719148,1.09576273068618,5.06909471609465,4.75624751557551,0.973298668861389,0.425083309412003,1.13978600502014
7.49739135719148,1.09576273068618,5.06909471609465,4.75624751557551,0.973909378051758,0.425784945487976,1.13970768451691
7.49739135719148,1.09576273068618,5.06909471609465,4.75624751557551,0.974563300609589,0.426381915807724,1.13950538635254
7.49739135719148,1.09576273068618,5.06909471609465,4.75624751557551,0.975260376930237,0.426874250173569,1.13917922973633
7.49739135719148,1.09576273068618,5.06909471609465,4.75624751557551,0.975987553596497,0.427287369966507,1.13875675201416
7.49739135719148,1.09576273068618,5.06909471609465,4.75624751557551,0.976757943630219,0.427623480558395,1.13829100131989
7.49739135719148,1.09576273068618,5.06909471609465,4.75624751557551,0.977597713470459,0.427859306335449,1.13780748844147
7.49739135719148,1.09576273068618,5.06909471609465,4.75624751557551,0.978506803512573,0.427994847297668,1.13730609416962
7.49739135719148,1.09576273068618,5.06909471609465,4.75624751557551,0.979485273361206,0.428030103445053,1.13678693771362
7.49739135719148,1.09576273068618,5.06909471609465,4.75624751557551,0.980549812316895,0.427939653396606,1.13624560832977
7.49739135719148,1.09576273068618,5.06909471609465,4.75624751557551,0.981712102890015,0.427711874246597,1.1357010602951
7.49739135719148,1.09576273068618,5.06909471609465,4.75624751557551,0.982967019081116,0.427360594272614,1.13517642021179
7.49739135719148,1.09576273068618,5.06909471609465,4.75624751557551,0.984314560890198,0.426885783672333,1.13467180728912
7.49739135719148,1.09576273068618,5.06909471609465,4.75624751557551,0.985754728317261,0.426287472248077,1.1341872215271
7.49739135719148,1.09576273068618,5.06909471609465,4.75624751557551,0.987299203872681,0.425597608089447,1.13372266292572
7.49739135719148,1.09576273068618,5.06909471609465,4.75624751557551,0.988929808139801,0.424861252307892,1.13325917720795
7.49739135719148,1.09576273068618,5.06909471609465,4.75624751557551,0.990616738796234,0.42409148812294,1.13277792930603
7.49739135719148,1.09576273068618,5.06909471609465,4.75624751557551,0.99235999584198,0.423288315534592,1.13227891921997
7.49739135719148,1.09576273068618,5.06909471609465,4.75624751557551,0.994159579277039,0.422451734542847,1.13176226615906
7.49739135719148,1.09576273068618,5.06909471609465,4.75624751557551,0.995998799800873,0.421591937541962,1.13124966621399
7.49739135719148,1.09576273068618,5.06909471609465,4.75624751557551,0.99784642457962,0.420767039060593,1.13079333305359
7.49739135719148,1.09576273068618,5.06909471609465,4.75624751557551,0.999687910079956,0.420024991035461,1.13042390346527
7.49739135719148,1.09576273068618,5.06909471609465,4.75624751557551,1.00152325630188,0.41936582326889,1.13014149665833
7.49739135719148,1.09576273068618,5.06909471609465,4.75624751557551,1.00335252285004,0.418789505958557,1.12994599342346
7.49739135719148,1.09576273068618,5.06909471609465,4.75624751557551,1.00515973567963,0.418310612440109,1.12986421585083
7.49739135719148,1.09576273068618,5.06909471609465,4.75624751557551,1.00694191455841,0.41791820526123,1.12989556789398
7.49739135719148,1.09576273068618,5.06909471609465,4.75624751557551,1.00871217250824,0.417586863040924,1.13001239299774
7.49739135719148,1.09576273068618,5.06909471609465,4.75624751557551,1.01047050952911,0.417316615581512,1.13021469116211
7.49739135719148,1.09576273068618,5.06909471609465,4.75624751557551,1.01221692562103,0.417107433080673,1.13050246238708
7.49739135719148,1.09576273068618,5.06909471609465,4.75624751557551,1.01399862766266,0.416909217834473,1.13084447383881
7.49739135719148,1.09576273068618,5.06909471609465,4.75624751557551,1.01584625244141,0.416697233915329,1.13121390342712
7.49739135719148,1.09576273068618,5.06909471609465,4.75624751557551,1.01774299144745,0.416496932506561,1.13161504268646
7.49739135719148,1.09576273068618,5.06909471609465,4.75624751557551,1.01968896389008,0.416308283805847,1.13204789161682
7.49739135719148,1.09576273068618,5.06909471609465,4.75624751557551,1.02168405056,0.416131317615509,1.13251256942749
7.49739135719148,1.09576273068618,5.06909471609465,4.75624751557551,1.02370142936707,0.416000932455063,1.13303804397583
7.49739135719148,1.09576273068618,5.06909471609465,4.75624751557551,1.02570259571075,0.415919989347458,1.13365340232849
7.49739135719148,1.09576273068618,5.06909471609465,4.75624751557551,1.02767586708069,0.415856570005417,1.13435864448547
7.49739135719148,1.09576273068618,5.06909471609465,4.75624751557551,1.02962136268616,0.415810644626617,1.13515377044678
7.49739135719148,1.09576273068618,5.06909471609465,4.75624751557551,1.03153896331787,0.41578221321106,1.1360387802124
7.49739135719148,1.09576273068618,5.06909471609465,4.75624751557551,1.03339898586273,0.415783643722534,1.13697957992554
7.49739135719148,1.09576273068618,5.06909471609465,4.75624751557551,1.03518831729889,0.415817111730576,1.13792014122009
7.49739135719148,1.09576273068618,5.06909471609465,4.75624751557551,1.03692364692688,0.41587245464325,1.13883876800537
7.49739135719148,1.09576273068618,5.06909471609465,4.75624751557551,1.0386049747467,0.415949672460556,1.13973546028137
7.49739135719148,1.09576273068618,5.06909471609465,4.75624751557551,1.04023230075836,0.416048765182495,1.14061009883881
7.49739135719148,1.09576273068618,5.06909471609465,4.75624751557551,1.04181003570557,0.41616827249527,1.14149475097656
7.49739135719148,1.09576273068618,5.06909471609465,4.75624751557551,1.04335856437683,0.41629222035408,1.14239454269409
7.49739135719148,1.09576273068618,5.06909471609465,4.75624751557551,1.04489386081696,0.416406065225601,1.14328253269196
7.49739135719148,1.09576273068618,5.06909471609465,4.75624751557551,1.04641592502594,0.416509836912155,1.14415872097015
7.49739135719148,1.09576273068618,5.06909471609465,4.75624751557551,1.04792463779449,0.41660350561142,1.14502322673798
7.49739135719148,1.09576273068618,5.06909471609465,4.75624751557551,1.04943108558655,0.41666966676712,1.14585196971893
7.49739135719148,1.09576273068618,5.06909471609465,4.75624751557551,1.0508987903595,0.416741013526917,1.14665222167969
7.49739135719148,1.09576273068618,5.06909471609465,4.75624751557551,1.05228066444397,0.416867673397064,1.1474552154541
7.49739135719148,1.09576273068618,5.06909471609465,4.75624751557551,1.05357658863068,0.417049646377563,1.14826107025146
7.49739135719148,1.09576273068618,5.06909471609465,4.75624751557551,1.05478668212891,0.417286932468414,1.14906966686249
7.49739135719148,1.09576273068618,5.06909471609465,4.75624751557551,1.05589270591736,0.417568653821945,1.14989709854126
7.49739135719148,1.09576273068618,5.06909471609465,4.75624751557551,1.05690348148346,0.417849004268646,1.15073025226593
7.49739135719148,1.09576273068618,5.06909471609465,4.75624751557551,1.05784583091736,0.418093144893646,1.15154004096985
7.49739135719148,1.09576273068618,5.06909471609465,4.75624751557551,1.05871975421906,0.418301045894623,1.15232646465302
7.49739135719148,1.09576273068618,5.06909471609465,4.75624751557551,1.05952525138855,0.418472737073898,1.15308952331543
7.49739135719148,1.09576273068618,5.06909471609465,4.75624751557551,1.06028985977173,0.418619811534882,1.15378201007843
7.49739135719148,1.09576273068618,5.06909471609465,4.75624751557551,1.06107115745544,0.418741583824158,1.15439093112946
7.49739135719148,1.09576273068618,5.06909471609465,4.75624751557551,1.0618988275528,0.418825685977936,1.15495038032532
7.49739135719148,1.09576273068618,5.06909471609465,4.75624751557551,1.06277287006378,0.418872117996216,1.15546035766602
7.49739135719148,1.09576273068618,5.06909471609465,4.75624751557551,1.06369340419769,0.418880879878998,1.15592086315155
7.49739135719148,1.09576273068618,5.06909471609465,4.75624751557551,1.0646516084671,0.418860703706741,1.15638053417206
7.49739135719148,1.09576273068618,5.06909471609465,4.75624751557551,1.06563448905945,0.418821752071381,1.15685617923737
7.49739135719148,1.09576273068618,5.06909471609465,4.75624751557551,1.06663763523102,0.418765485286713,1.15731573104858
7.49739135719148,1.09576273068618,5.06909471609465,4.75624751557551,1.06766104698181,0.418691903352737,1.157759308815
7.49739135719148,1.09576273068618,5.06909471609465,4.75624751557551,1.06870472431183,0.418601006269455,1.15818679332733
7.49739135719148,1.09576273068618,5.06909471609465,4.75624751557551,1.06977665424347,0.418495714664459,1.15856921672821
7.49739135719148,1.09576273068618,5.06909471609465,4.75624751557551,1.07087397575378,0.418396353721619,1.15890157222748
7.49739135719148,1.09576273068618,5.06909471609465,4.75624751557551,1.07198584079742,0.418320387601852,1.15920770168304
7.49739135719148,1.09576273068618,5.06909471609465,4.75624751557551,1.0731121301651,0.418267816305161,1.15948760509491
7.49739135719148,1.09576273068618,5.06909471609465,4.75624751557551,1.0742529630661,0.418238639831543,1.15974140167236
7.49739135719148,1.09576273068618,5.06909471609465,4.75624751557551,1.07541477680206,0.41823211312294,1.15995526313782
7.49739135719148,1.09576273068618,5.06909471609465,4.75624751557551,1.07662236690521,0.418258428573608,1.16009938716888
7.49739135719148,1.09576273068618,5.06909471609465,4.75624751557551,1.07789385318756,0.418328493833542,1.16015779972076
7.49739135719148,1.09576273068618,5.06909471609465,4.75624751557551,1.0792293548584,0.41844230890274,1.16013038158417
7.49739135719148,1.09576273068618,5.06909471609465,4.75624751557551,1.08062875270844,0.418599873781204,1.16001725196838
7.49739135719148,1.09576273068618,5.06909471609465,4.75624751557551,1.0820906162262,0.418803364038467,1.15980899333954
7.49739135719148,1.09576273068618,5.06909471609465,4.75624751557551,1.08358585834503,0.419043332338333,1.15954339504242
7.49739135719148,1.09576273068618,5.06909471609465,4.75624751557551,1.08508694171906,0.41930815577507,1.15926766395569
7.49739135719148,1.09576273068618,5.06909471609465,4.75624751557551,1.08659386634827,0.419597864151001,1.15898180007935
7.49739135719148,1.09576273068618,5.06909471609465,4.75624751557551,1.08810663223267,0.419912427663803,1.15868580341339
7.9678060510379,1.01601337662648,5.0188767195651,4.4625646524228,1.08958959579468,0.420224964618683,1.15838766098022
8.36666470694712,0.962816193999935,4.91276481235656,4.12523056589439,1.09101593494415,0.420499891042709,1.15804672241211
8.70661611950399,0.921966699487403,4.71698038343329,3.76485120114264,1.09239435195923,0.420728474855423,1.15761435031891
9.01621042505721,0.881395724255638,4.40926969622156,3.39811673181118,1.0937248468399,0.420910716056824,1.15709042549133
9.34110374882258,0.83126225371753,3.98336847961741,3.03151064843083,1.09500741958618,0.421046644449234,1.15647506713867
9.7249043159403,0.765995902257734,3.45180527582875,2.65938396915296,1.09626388549805,0.42114931344986,1.15572822093964
10.2090519867646,0.68253295778781,2.84205981555474,2.26652295877164,1.09750807285309,0.421228915452957,1.15483903884888
10.8151099444448,0.581244779348781,2.19396732553934,1.83328456676779,1.09873199462891,0.421282529830933,1.15383660793304
11.5431986536914,0.464730880227808,1.5539733959567,1.34708696993313,1.0999356508255,0.421310156583786,1.15272092819214
12.3711526078031,0.335776453232564,0.967070029210941,0.809791764558667,1.10111904144287,0.421311795711517,1.15149199962616
13.2557249757709,0.199302005656604,0.469596919551577,0.240079106530194,1.10230243206024,0.421290367841721,1.15013384819031
14.1470433675173,0.0596710062319478,0.085884357509462,-0.322572324187504,1.10349977016449,0.421249508857727,1.14864432811737
14.9901758751309,-0.0740182485363398,-0.175899878017422,-0.8275142698835,1.1047043800354,0.421189963817596,1.14703714847565
15.7406710204992,-0.194338577827799,-0.323750519763964,-1.22178752572698,1.10591638088226,0.421111702919006,1.14531242847443
16.3704605261148,-0.289406492329692,-0.378571544231784,-1.46238279809776,1.10713577270508,0.421014755964279,1.14347016811371
16.8699072151513,-0.349195297934398,-0.371165168451409,-1.52914349267237,1.10836470127106,0.420899093151093,1.14157783985138
17.2480459408834,-0.366556333102225,-0.336036797343558,-1.43086404710149,1.10960686206818,0.420762568712235,1.13971257209778
17.525114774647,-0.339261443587033,-0.307553398898472,-1.20984763227421,1.11086368560791,0.420602977275848,1.13788378238678
17.7282182762667,-0.271859777641354,-0.314509854654806,-0.931506890278557,1.11213505268097,0.420420348644257,1.13609147071838
17.881449387809,-0.175770625776648,-0.377187174927041,-0.678522373626138,1.11342108249664,0.420214653015137,1.13433563709259
18.0032392099546,-0.0714187352491786,-0.506625704920503,-0.531327880684247,1.11472105979919,0.420005530118942,1.13262140750885
18.1022612018475,0.0160363189117428,-0.702479352309005,-0.551933825836601,1.11606991291046,0.41983950138092,1.13094580173492
18.1781539693567,0.0617134809575744,-0.956787993590278,-0.773078626614977,1.11750316619873,0.419743418693542,1.1293009519577
18.2285082182754,0.0450023241115385,-1.25359677252716,-1.18988361687739,1.119020819664,0.419717311859131,1.1276867389679
18.2499509367145,-0.0486729939865186,-1.57414748504038,-1.75953208193031,1.12062299251556,0.419761180877686,1.12610328197479
18.2477825719286,-0.218291235973783,-1.89767459155879,-2.41115497676377,1.12228417396545,0.419879376888275,1.12455344200134
18.2354951714747,-0.451876072777264,-2.20583519879457,-3.05809178438191,1.12395703792572,0.42006316781044,1.1230800151825
18.2340495949507,-0.723153852244581,-2.48423186597836,-3.61811130310195,1.12561988830566,0.420299500226974,1.12172305583954
18.2725983022569,-0.997309664279826,-2.72469681421221,-4.02766248712693,1.12727284431458,0.420588374137878,1.12048256397247
18.3775230649561,-1.23730044454095,-2.9255688003304,-4.2538143399984,1.12891578674316,0.420929789543152,1.1193585395813
18.5642433659707,-1.40673300700771,-3.09176233536479,-4.30118875595615,1.13057553768158,0.421282321214676,1.11831903457642
18.8360117524797,-1.48044777665078,-3.23327948754213,-4.2088150641361,1.13225877285004,0.42160165309906,1.11734807491302
19.1758427003262,-1.44479730871257,-3.36337559295535,-4.03985915248191,1.13394510746002,0.421884894371033,1.11646163463593
19.5497651611967,-1.30572334784944,-3.4939216183926,-3.86628134658793,1.13563454151154,0.422132015228271,1.11565971374512
19.9086295332757,-1.08504323772151,-3.63426205666092,-3.75272397283555,1.13732707500458,0.422343045473099,1.1149423122406
20.2001541322791,-0.815158054658034,-3.78830775104618,-3.74296664055157,1.13898348808289,0.422508537769318,1.11432754993439
20.3757916799432,-0.536638773890768,-3.95245934135607,-3.84933440104207,1.14056241512299,0.422619044780731,1.1137660741806
20.4072329693398,-0.292191685137365,-4.11674936859644,-4.05237678271464,1.14206159114838,0.422674566507339,1.11319041252136
20.2849612883528,-0.115517621370662,-4.26657273660224,-4.3062600010248,1.14348101615906,0.422675102949142,1.11260044574738
20.0293351730284,-0.0288052852917869,-4.38625146299726,-4.54878106266216,1.14482080936432,0.42262065410614,1.11199617385864
19.6828786661135,-0.0399460565224776,-4.46176880857099,-4.71927760572961,1.14608526229858,0.422548294067383,1.11136603355408
19.3035352932781,-0.13854188191409,-4.48703354838255,-4.77352067007147,1.14727938175201,0.422475457191467,1.11069333553314
18.9581629687563,-0.302775417806521,-4.46367231636501,-4.69443492419079,1.14840400218964,0.42238250374794,1.10997295379639
18.7037415005351,-0.498852991466676,-4.40452513781987,-4.49761926114681,1.14945912361145,0.422269463539124,1.10920488834381
18.5847223667271,-0.692516731360181,-4.33046138001612,-4.22929262333734,1.15044474601746,0.422136336565018,1.10838913917542
18.6194162033027,-0.849415926192408,-4.26740335818509,-3.9564724772392,1.15138339996338,0.422015815973282,1.10755109786987
18.8013179159041,-0.945783597337882,-4.24193096297782,-3.75400783234661,1.15232300758362,0.421936243772507,1.1067134141922
19.1029615505754,-0.968157979559519,-4.27429059547618,-3.68641262908982,1.15328907966614,0.421893268823624,1.10587310791016
19.4804979527558,-0.914960796932971,-4.37590330244431,-3.79348651231139,1.15428161621094,0.421886891126633,1.10503017902374
19.880440791058,-0.798818256853021,-4.54448487452938,-4.08152039361548,1.15530061721802,0.421917110681534,1.10418474674225
20.2543632519285,-0.638391151131076,-4.76394201856375,-4.52066453937016,1.15632343292236,0.421959221363068,1.10332572460175
20.5609459397234,-0.45698225959133,-5.00821398238563,-5.05038497362942,1.15730082988739,0.422029912471771,1.10247433185577
20.7687475650461,-0.276873124695165,-5.24570253661428,-5.59191691539035,1.15820586681366,0.422170639038086,1.10166251659393
20.8630714332361,-0.117467256336033,-5.4451209349625,-6.06386367165236,1.15903854370117,0.422381401062012,1.10089027881622
20.8378943087767,0.0115800104194666,-5.58310794541275,-6.39978551271861,1.15979886054993,0.422662168741226,1.10015761852264
20.6993598918949,0.104791129716245,-5.64841556736399,-6.56026795159987,1.16049551963806,0.423002809286118,1.09947395324707
20.4557802476036,0.16569401244402,-5.64564682875451,-6.54120263786078,1.16117644309998,0.423402577638626,1.09883058071136
20.121731605853,0.200508922539929,-5.59428672754854,-6.37276027001101,1.16188097000122,0.423870921134949,1.09820938110352
19.7190180792131,0.215363284180849,-5.52520669924187,-6.11213678926784,1.1626091003418,0.424407869577408,1.09761035442352
19.2739009745364,0.216198842023151,-5.47405425343162,-5.82769771459469,1.1633608341217,0.425013393163681,1.09703350067139
18.8230015637638,0.203943993669392,-5.474019644199,-5.5881937228083,1.16414988040924,0.425718754529953,1.09646284580231
18.4100485367457,0.175256507750363,-5.54867175895727,-5.44080665093975,1.16498577594757,0.426518142223358,1.09589397907257
18.0881668307387,0.125308716732767,-5.70590150274344,-5.40793984745687,1.16586422920227,0.427374482154846,1.09533858299255
17.9078311593717,0.049365792843559,-5.93639899198314,-5.47951501519791,1.16678512096405,0.42828780412674,1.09479665756226
17.913372536047,-0.0572142519300481,-6.21330746216434,-5.62003343868234,1.1677485704422,0.429258078336716,1.09426820278168
18.1321364500098,-0.191739064540637,-6.49848753894137,-5.77749880771264,1.16872107982635,0.430257707834244,1.09372270107269
18.5627977894467,-0.345853066565191,-6.74847002614533,-5.89818160175134,1.16964662075043,0.431226402521133,1.0931042432785
19.1742766590919,-0.504516216842277,-6.92293516777555,-5.94151186024928,1.17050278186798,0.432131439447403,1.09238743782043
19.9015221153661,-0.648882044039976,-6.99319190999125,-5.88957974302731,1.17128956317902,0.432972848415375,1.0915721654892
20.6563539903064,-0.758061602100745,-6.94709241214331,-5.75374740675821,1.17200696468353,0.433750629425049,1.09065854549408
21.3373409978131,-0.811908663049083,-6.79297749929281,-5.56867905824034,1.17263615131378,0.43443351984024,1.08966386318207
21.8489546225931,-0.799746654455579,-6.55728862516033,-5.38733390230452,1.17318069934845,0.435014992952347,1.08861660957336
22.1139769853234,-0.717676306389491,-6.28065702884008,-5.26446854709702,1.17366313934326,0.435519754886627,1.08752763271332
22.09458216696,-0.57312479967128,-6.00997822053022,-5.24488968955351,1.17408347129822,0.435947805643082,1.08639693260193
21.7987208383846,-0.382339092345703,-5.7907979503568,-5.35016616945962,1.17444181442261,0.43629914522171,1.08522462844849
21.2750607425715,-0.167786406394653,-5.65744857707744,-5.57208128594462,1.17474889755249,0.436583936214447,1.08396410942078
20.6147936652418,0.0427741698654004,-5.62944970788901,-5.87603502518573,1.17500698566437,0.436822563409805,1.08255934715271
19.9287471399011,0.225111459007704,-5.70559001964987,-6.20784851581662,1.1752073764801,0.437025159597397,1.0810010433197
19.3310012472338,0.359821951138805,-5.86711130828075,-6.50563972940469,1.17535006999969,0.437191754579544,1.07928919792175
18.9178072907951,0.434557958144688,-6.08078871046782,-6.71683461897243,1.17543506622314,0.437322348356247,1.07742381095886
18.7510841316956,0.44718416553947,-6.30657934407139,-6.80753929342811,1.17542314529419,0.437430739402771,1.07542073726654
18.8504675177195,0.403642317979521,-6.50461337311486,-6.77435152506747,1.17526125907898,0.437499493360519,1.07331204414368
19.1892142831731,0.316558622859623,-6.64422701749818,-6.6405091710405,1.17493557929993,0.437497347593308,1.07111382484436
19.7039599904216,0.20375831414888,-6.7083579255404,-6.45280891052498,1.17444610595703,0.437424331903458,1.0688259601593
20.3066449362126,0.0817668691728176,-6.69731758033507,-6.26812571986042,1.17379283905029,0.43728044629097,1.0664484500885
