EOG_left_h,EOG_right_h,EOG_left_v,EOG_right_v,head_horizontal,head_frontal,head_sagittal
4.86480941332894,7.04052915653895,-5.33337366275758,-12.0087356775753,0.0,0.0,0.0
4.86480941332894,7.04052915653895,-5.33337366275758,-12.0087356775753,-0.00093197647947818,-0.000130457250634208,-0.000612608680967242
4.86480941332894,7.04052915653895,-5.33337366275758,-12.0087356775753,-0.00186183210462332,-0.000260552216786891,-0.0012240547221154
4.86480941332894,7.04052915653895,-5.33337366275758,-12.0087356775753,-0.00278956908732653,-0.000390285160392523,-0.00183433946222067
4.86480941332894,7.04052915653895,-5.33337366275758,-12.0087356775753,-0.00371518963947892,-0.000519656401593238,-0.00244346424005926
4.86480941332894,7.04052915653895,-5.33337366275758,-12.0087356775753,-0.00463869562372565,-0.000648666173219681,-0.00305143021978438
4.86480941332894,7.04052915653895,-5.33337366275758,-12.0087356775753,-0.00556008936837316,-0.000777314824517816,-0.0036582387983799
4.86480941332894,7.04052915653895,-5.33337366275758,-12.0087356775753,-0.00647937273606658,-0.000905602588318288,-0.00426389090716839
4.86480941332894,7.04052915653895,-5.33337366275758,-12.0087356775753,-0.00739654805511236,-0.0010335297556594,-0.00486838817596436
4.86480941332894,7.04052915653895,-5.33337366275758,-12.0087356775753,-0.00831161718815565,-0.00116109661757946,-0.00547173200175166
4.86480941332894,7.04052915653895,-5.33337366275758,-12.0087356775753,-0.00922458246350288,-0.00128830352332443,-0.00607392331585288
4.86480941332894,7.04052915653895,-5.33337366275758,-12.0087356775753,-0.0101354457437992,-0.00141515070572495,-0.00667496398091316
4.86480941332894,7.04052915653895,-5.33337366275758,-12.0087356775753,-0.0110442088916898,-0.00154163839761168,-0.00727485446259379
4.86480941332894,7.04052915653895,-5.33337366275758,-12.0087356775753,-0.0119508747011423,-0.00166776694823056,-0.00787359662353992
4.86480941332894,7.04052915653895,-5.33337366275758,-12.0087356775753,-0.0128554441034794,-0.00179353670682758,-0.00847119186073542
4.86480941332894,7.04052915653895,-5.33337366275758,-12.0087356775753,-0.0137579198926687,-0.00191894790623337,-0.00906764063984156
4.86480941332894,7.04052915653895,-5.33337366275758,-12.0087356775753,-0.0146583048626781,-0.00204400066286325,-0.00966294482350349
4.86480941332894,7.04052915653895,-5.33337366275758,-12.0087356775753,-0.0155565999448299,-0.00216869544237852,-0.0102571062743664
4.86480941332894,7.04052915653895,-5.33337366275758,-12.0087356775753,-0.0164528079330921,-0.00229303259402514,-0.0108501249924302
4.86480941332894,7.04052915653895,-5.33337366275758,-12.0087356775753,-0.0173469297587872,-0.00241701235063374,-0.0114420028403401
4.86480941332894,7.04052915653895,-5.33337366275758,-12.0087356775753,-0.0182389691472054,-0.00254063494503498,-0.0120327416807413
4.86480941332894,7.04052915653895,-5.33337366275758,-12.0087356775753,-0.0191289279609919,-0.0026639006100595,-0.0126223415136337
4.86480941332894,7.04052915653895,-5.33337366275758,-12.0087356775753,-0.0200168062001467,-0.00278680957853794,-0.0132108051329851
4.86480941332894,7.04052915653895,-5.33337366275758,-12.0087356775753,-0.0209026075899601,-0.00290936231613159,-0.0137981325387955
4.86480941332894,7.04052915653895,-5.33337366275758,-12.0087356775753,-0.0217863339930773,-0.0030315590556711,-0.0143843255937099
4.86480941332894,7.04052915653895,-5.33337366275758,-12.0087356775753,-0.0226679891347885,-0.0031534000299871,-0.0149693852290511
4.86480941332894,7.04052915653895,-5.33337366275758,-12.0087356775753,-0.0235475730150938,-0.00327488570474088,-0.0155533133074641
4.86480941332894,7.04052915653895,-5.33337366275758,-12.0087356775753,-0.0244250874966383,-0.00339601607993245,-0.016136109828949
4.86480941332894,7.04052915653895,-5.33337366275758,-12.0087356775753,-0.0253005363047123,-0.00351679162122309,-0.0167177766561508
4.86480941332894,7.04052915653895,-5.33337366275758,-12.0087356775753,-0.0261739194393158,-0.00363721256144345,-0.0172983165830374
4.86480941332894,7.04052915653895,-5.33337366275758,-12.0087356775753,-0.0270452406257391,-0.00375727913342416,-0.0178777296096087
4.86480941332894,7.04052915653895,-5.33337366275758,-12.0087356775753,-0.0279145017266274,-0.00387699180282652,-0.0184560157358646
4.86480941332894,7.04052915653895,-5.33337366275758,-12.0087356775753,-0.0287817046046257,-0.00399635080248117,-0.0190331786870956
4.86480941332894,7.04052915653895,-5.33337366275758,-12.0087356775753,-0.0296468511223793,-0.00411535613238811,-0.0196092184633017
4.86480941332894,7.04052915653895,-5.33337366275758,-12.0087356775753,-0.0305099431425333,-0.00423400849103928,-0.0201841369271278
4.86480941332894,7.04052915653895,-5.33337366275758,-12.0087356775753,-0.0313709825277328,-0.00435230787843466,-0.0207579340785742
4.86480941332894,7.04052915653895,-5.33337366275758,-12.0087356775753,-0.0322299711406231,-0.00447025476023555,-0.0213306117802858
4.86480941332894,7.04052915653895,-5.33337366275758,-12.0087356775753,-0.0330869108438492,-0.00458784913644195,-0.021902171894908
4.86480941332894,7.04052915653895,-5.33337366275758,-12.0087356775753,-0.0339418053627014,-0.00470509147271514,-0.0224726144224405
4.86480941332894,7.04052915653895,-5.33337366275758,-12.0087356775753,-0.0347946546971798,-0.00482198176905513,-0.0230419412255287
4.86480941332894,7.04052915653895,-5.33337366275758,-12.0087356775753,-0.0356454625725746,-0.00493852095678449,-0.0236101541668177
4.86480941332894,7.04052915653895,-5.33337366275758,-12.0087356775753,-0.0364942327141762,-0.00505470857024193,-0.0241772551089525
4.86480941332894,7.04052915653895,-5.33337366275758,-12.0087356775753,-0.0373409651219845,-0.00517054554075003,-0.0247432440519333
4.86480941332894,7.04052915653895,-5.33337366275758,-12.0087356775753,-0.0381856597959995,-0.00528603186830878,-0.0253081228584051
4.86480941332894,7.04052915653895,-5.33337366275758,-12.0087356775753,-0.0390283204615116,-0.0054011675529182,-0.025871891528368
4.86480941332894,7.04052915653895,-5.33337366275758,-12.0087356775753,-0.039868950843811,-0.00551595352590084,-0.0264345519244671
4.86480941332894,7.04052915653895,-5.33337366275758,-12.0087356775753,-0.0407075509428978,-0.00563038932159543,-0.0269961059093475
4.86480941332894,7.04052915653895,-5.33337366275758,-12.0087356775753,-0.0415441244840622,-0.00574447587132454,-0.0275565553456545
4.86480941332894,7.04052915653895,-5.33337366275758,-12.0087356775753,-0.0423786714673042,-0.00585821317508817,-0.0281159002333879
4.86480941332894,7.04052915653895,-5.33337366275758,-12.0087356775753,-0.0432111956179142,-0.00597160123288631,-0.0286741424351931
4.86480941332894,7.04052915653895,-5.33337366275758,-12.0087356775753,-0.0440416969358921,-0.00608464097604156,-0.0292312819510698
4.86480941332894,7.04052915653895,-5.33337366275758,-12.0087356775753,-0.0448701791465282,-0.00619733240455389,-0.0297873206436634
4.86480941332894,7.04052915653895,-5.33337366275758,-12.0087356775753,-0.0456966459751129,-0.00630967551842332,-0.0303422603756189
4.86480941332894,7.04052915653895,-5.33337366275758,-12.0087356775753,-0.0465210974216461,-0.00642167078331113,-0.0308961030095816
4.86480941332894,7.04052915653895,-5.33337366275758,-12.0087356775753,-0.0473435334861279,-0.00653331866487861,-0.0314488485455513
4.86480941332894,7.04052915653895,-5.33337366275758,-12.0087356775753,-0.0481639578938484,-0.00664461916312575,-0.0320004969835281
4.86480941332894,7.04052915653895,-5.33337366275758,-12.0087356775753,-0.0489823743700981,-0.00675557274371386,-0.0325510539114475
4.86480941332894,7.04052915653895,-5.33337366275758,-12.0087356775753,-0.0497987829148769,-0.00686617940664291,-0.0331005156040192
4.86480941332894,7.04052915653895,-5.33337366275758,-12.0087356775753,-0.0506131872534752,-0.00697643961757421,-0.0336488857865334
4.86480941332894,7.04052915653895,-5.33337366275758,-12.0087356775753,-0.0514255873858929,-0.00708635384216905,-0.0341961681842804
4.86480941332894,7.04052915653895,-5.33337366275758,-12.0087356775753,-0.0522359870374203,-0.00719592208042741,-0.03474235907197
4.86480941332894,7.04052915653895,-5.33337366275758,-12.0087356775753,-0.0530443862080574,-0.00730514479801059,-0.0352874621748924
4.86480941332894,7.04052915653895,-5.33337366275758,-12.0087356775753,-0.0538507886230946,-0.00741402199491858,-0.0358314774930477
4.86480941332894,7.04052915653895,-5.33337366275758,-12.0087356775753,-0.0546551942825317,-0.00752255413681269,-0.0363744087517262
4.86480941332894,7.04052915653895,-5.33337366275758,-12.0087356775753,-0.0554576069116592,-0.00763074168935418,-0.0369162559509277
4.86480941332894,7.04052915653895,-5.33337366275758,-12.0087356775753,-0.0562580302357674,-0.00773858465254307,-0.0374570190906525
4.86480941332894,7.04052915653895,-5.33337366275758,-12.0087356775753,-0.0570564642548561,-0.00784608349204063,-0.0379967018961906
4.86480941332894,7.04052915653895,-5.33337366275758,-12.0087356775753,-0.0578529126942158,-0.00795323867350817,-0.0385353043675423
4.86480941332894,7.04052915653895,-5.33337366275758,-12.0087356775753,-0.0586473755538464,-0.00806005019694567,-0.0390728265047073
4.86480941332894,7.04052915653895,-5.33337366275758,-12.0087356775753,-0.0594398528337479,-0.00816651806235313,-0.0396092720329762
4.86480941332894,7.04052915653895,-5.33337366275758,-12.0087356775753,-0.0602303519845009,-0.00827264320105314,-0.0401446372270584
4.86480941332894,7.04052915653895,-5.33337366275758,-12.0087356775753,-0.0610188730061054,-0.00837842468172312,-0.0406789295375347
4.86480941332894,7.04052915653895,-5.33337366275758,-12.0087356775753,-0.0618054158985615,-0.00848386436700821,-0.0412121452391148
4.86480941332894,7.04052915653895,-5.33337366275758,-12.0087356775753,-0.062589980661869,-0.00858896132558584,-0.0417442880570889
4.86480941332894,7.04052915653895,-5.33337366275758,-12.0087356775753,-0.0633725747466087,-0.00869371648877859,-0.042275357991457
4.86480941332894,7.04052915653895,-5.33337366275758,-12.0087356775753,-0.0641532018780708,-0.00879812985658646,-0.0428053587675095
4.86480941332894,7.04052915653895,-5.33337366275758,-12.0087356775753,-0.0649318546056747,-0.00890220142900944,-0.0433342903852463
4.86480941332894,7.04052915653895,-5.33337366275758,-12.0087356775753,-0.0657085403800011,-0.00900593213737011,-0.0438621528446674
4.86480941332894,7.04052915653895,-5.33337366275758,-12.0087356775753,-0.0664832666516304,-0.00910932198166847,-0.0443889498710632
4.86480941332894,7.04052915653895,-5.33337366275758,-12.0087356775753,-0.0672560259699821,-0.00921237096190453,-0.0449146814644337
4.86480941332894,7.04052915653895,-5.33337366275758,-12.0087356775753,-0.0680268257856369,-0.00931508000940084,-0.0454393476247787
4.86480941332894,7.04052915653895,-5.33337366275758,-12.0087356775753,-0.0687956660985947,-0.00941744912415743,-0.0459629520773888
4.86480941332894,7.04052915653895,-5.33337366275758,-12.0087356775753,-0.0695625469088554,-0.00951947830617428,-0.0464854910969734
4.86480941332894,7.04052915653895,-5.33337366275758,-12.0087356775753,-0.0703274756669998,-0.00962116755545139,-0.0470069721341133
4.86480941332894,7.04052915653895,-5.33337366275758,-12.0087356775753,-0.0710904523730278,-0.00972251780331135,-0.0475273914635181
4.86480941332894,7.04052915653895,-5.33337366275758,-12.0087356775753,-0.0718514770269394,-0.00982352904975414,-0.0480467528104782
4.86480941332894,7.04052915653895,-5.33337366275758,-12.0087356775753,-0.0726105496287346,-0.00992420222610235,-0.0485650561749935
4.86480941332894,7.04052915653895,-5.33337366275758,-12.0087356775753,-0.073367677628994,-0.0100245364010334,-0.0490823052823544
4.86480941332894,7.04052915653895,-5.33337366275758,-12.0087356775753,-0.0741228610277176,-0.0101245325058699,-0.0495985001325607
4.86480941332894,7.04052915653895,-5.33337366275758,-12.0087356775753,-0.0748760998249054,-0.0102241905406117,-0.0501136407256126
4.86480941332894,7.04052915653895,-5.33337366275758,-12.0087356775753,-0.075627401471138,-0.0103235114365816,-0.0506277270615101
4.86480941332894,7.04052915653895,-5.33337366275758,-12.0087356775753,-0.0763767659664154,-0.0104224951937795,-0.0511407628655434
4.86480941332894,7.04052915653895,-5.33337366275758,-12.0087356775753,-0.0771241933107376,-0.0105211418122053,-0.0516527481377125
4.86480941332894,7.04052915653895,-5.33337366275758,-12.0087356775753,-0.0778696835041046,-0.0106194512918591,-0.0521636866033077
4.86480941332894,7.04052915653895,-5.33337366275758,-12.0087356775753,-0.078613243997097,-0.0107174245640635,-0.0526735782623291
4.86480941332894,7.04052915653895,-5.33337366275758,-12.0087356775753,-0.0793548673391342,-0.0108150616288185,-0.0531824231147766
4.86480941332894,7.04052915653895,-5.33337366275758,-12.0087356775753,-0.0800945609807968,-0.010912362486124,-0.0536902211606503
4.86480941332894,7.04052915653895,-5.33337366275758,-12.0087356775753,-0.0808323323726654,-0.0110093280673027,-0.0541969761252403
4.86480941332894,7.04052915653895,-5.33337366275758,-12.0087356775753,-0.0815681740641594,-0.0111059583723545,-0.0547026880085468
4.86480941332894,7.04052915653895,-5.33337366275758,-12.0087356775753,-0.0823020935058594,-0.0112022534012794,-0.0552073605358601
4.86480941332894,7.04052915653895,-5.33337366275758,-12.0087356775753,-0.0830340981483459,-0.0112982131540775,-0.0557109899818897
4.86480941332894,7.04052915653895,-5.33337366275758,-12.0087356775753,-0.0837641805410385,-0.0113938385620713,-0.0562135837972164
4.86480941332894,7.04052915653895,-5.33337366275758,-12.0087356775753,-0.0844923481345177,-0.0114891296252608,-0.0567151382565498
4.86480941332894,7.04052915653895,-5.33337366275758,-12.0087356775753,-0.0852186009287834,-0.0115840872749686,-0.0572156570851803
4.86480941332894,7.04052915653895,-5.33337366275758,-12.0087356775753,-0.0859429389238358,-0.0116787105798721,-0.0577151402831078
4.86480941332894,7.04052915653895,-5.33337366275758,-12.0087356775753,-0.0866653621196747,-0.0117730004712939,-0.0582135878503323
4.86480941332894,7.04052915653895,-5.33337366275758,-12.0087356775753,-0.0873858779668808,-0.011866956949234,-0.0587110035121441
4.86480941332894,7.04052915653895,-5.33337366275758,-12.0087356775753,-0.0881044864654541,-0.011960580945015,-0.0592073872685432
4.86480941332894,7.04052915653895,-5.33337366275758,-12.0087356775753,-0.0888211876153946,-0.0120538724586368,-0.0597027391195297
4.86480941332894,7.04052915653895,-5.33337366275758,-12.0087356775753,-0.0895359888672829,-0.0121468314900994,-0.0601970627903938
4.86480941332894,7.04052915653895,-5.33337366275758,-12.0087356775753,-0.0902488902211189,-0.012239458039403,-0.0606903582811356
4.86480941332894,7.04052915653895,-5.33337366275758,-12.0087356775753,-0.0909598916769028,-0.0123317530378699,-0.0611826255917549
4.86480941332894,7.04052915653895,-5.33337366275758,-12.0087356775753,-0.0916689932346344,-0.0124237164855003,-0.0616738684475422
4.86480941332894,7.04052915653895,-5.33337366275758,-12.0087356775753,-0.0923762023448944,-0.0125153483822942,-0.0621640868484974
4.86480941332894,7.04052915653895,-5.33337366275758,-12.0087356775753,-0.0930815190076828,-0.012606649659574,-0.0626532807946205
4.86480941332894,7.04052915653895,-5.33337366275758,-12.0087356775753,-0.0937849432229996,-0.0126976203173399,-0.0631414577364922
4.86480941332894,7.04052915653895,-5.33337366275758,-12.0087356775753,-0.0944864749908447,-0.0127882603555918,-0.0636286064982414
4.86480941332894,7.04052915653895,-5.33337366275758,-12.0087356775753,-0.0951861217617989,-0.0128785697743297,-0.0641147419810295
4.86480941332894,7.04052915653895,-5.33337366275758,-12.0087356775753,-0.095883883535862,-0.0129685495048761,-0.0645998567342758
4.86480941332894,7.04052915653895,-5.33337366275758,-12.0087356775753,-0.0965797603130341,-0.0130581995472312,-0.0650839507579803
4.86480941332894,7.04052915653895,-5.33337366275758,-12.0087356775753,-0.0972737520933151,-0.0131475199013948,-0.0655670315027237
4.86480941332894,7.04052915653895,-5.33337366275758,-12.0087356775753,-0.0979658663272858,-0.0132365114986897,-0.0660490989685059
4.86480941332894,7.04052915653895,-5.33337366275758,-12.0087356775753,-0.098656103014946,-0.0133251743391156,-0.0665301531553268
4.86480941332894,7.04052915653895,-5.33337366275758,-12.0087356775753,-0.0993444621562958,-0.0134135084226727,-0.0670101940631866
4.86480941332894,7.04052915653895,-5.33337366275758,-12.0087356775753,-0.100030951201916,-0.013501513749361,-0.0674892216920853
4.86480941332894,7.04052915653895,-5.33337366275758,-12.0087356775753,-0.100715570151806,-0.0135891912505031,-0.0679672434926033
4.86480941332894,7.04052915653895,-5.33337366275758,-12.0087356775753,-0.101398319005966,-0.0136765409260988,-0.0684442520141602
4.86480941332894,7.04052915653895,-5.33337366275758,-12.0087356775753,-0.102079197764397,-0.0137635637074709,-0.0689202547073364
4.86480941332894,7.04052915653895,-5.33337366275758,-12.0087356775753,-0.102758206427097,-0.0138502586632967,-0.0693952515721321
4.86480941332894,7.04052915653895,-5.33337366275758,-12.0087356775753,-0.103435352444649,-0.0139366267248988,-0.0698692426085472
4.86480941332894,7.04052915653895,-5.33337366275758,-12.0087356775753,-0.104110635817051,-0.0140226678922772,-0.0703422278165817
4.86480941332894,7.04052915653895,-5.33337366275758,-12.0087356775753,-0.104784063994884,-0.0141083830967546,-0.0708142071962357
4.86480941332894,7.04052915653895,-5.33337366275758,-12.0087356775753,-0.105455629527569,-0.0141937723383307,-0.0712851881980896
4.86480941332894,7.04052915653895,-5.33337366275758,-12.0087356775753,-0.106125339865685,-0.0142788356170058,-0.0717551708221436
4.86480941332894,7.04052915653895,-5.33337366275758,-12.0087356775753,-0.106793195009232,-0.0143635729327798,-0.0722241550683975
4.86480941332894,7.04052915653895,-5.33337366275758,-12.0087356775753,-0.107459202408791,-0.0144479852169752,-0.0726921409368515
4.86480941332894,7.04052915653895,-5.33337366275758,-12.0087356775753,-0.108123354613781,-0.0145320724695921,-0.0731591284275055
4.86480941332894,7.04052915653895,-5.33337366275758,-12.0087356775753,-0.108785659074783,-0.0146158346906304,-0.0736251175403595
4.86480941332894,7.04052915653895,-5.33337366275758,-12.0087356775753,-0.109446115791798,-0.0146992718800902,-0.0740901157259941
4.86480941332894,7.04052915653895,-5.33337366275758,-12.0087356775753,-0.110104732215405,-0.0147823849692941,-0.0745541155338287
4.86480941332894,7.04052915653895,-5.33337366275758,-12.0087356775753,-0.110761500895023,-0.0148651739582419,-0.075017124414444
4.86480941332894,7.04052915653895,-5.33337366275758,-12.0087356775753,-0.111416429281235,-0.0149476397782564,-0.0754791423678398
4.86480941332894,7.04052915653895,-5.33337366275758,-12.0087356775753,-0.112069524824619,-0.0150297814980149,-0.0759401693940163
4.86480941332894,7.04052915653895,-5.33337366275758,-12.0087356775753,-0.112720780074596,-0.01511160004884,-0.0764002054929733
4.86480941332894,7.04052915653895,-5.33337366275758,-12.0087356775753,-0.113370202481747,-0.0151930963620543,-0.0768592581152916
4.86480941332894,7.04052915653895,-5.33337366275758,-12.0087356775753,-0.11401779204607,-0.0152742695063353,-0.0773173198103905
4.86480941332894,7.04052915653895,-5.33337366275758,-12.0087356775753,-0.114663548767567,-0.0153551204130054,-0.0777743980288506
4.86480941332894,7.04052915653895,-5.33337366275758,-12.0087356775753,-0.115307472646236,-0.0154356490820646,-0.0782304927706718
4.86480941332894,7.04052915653895,-5.33337366275758,-12.0087356775753,-0.11594957113266,-0.0155158555135131,-0.0786856040358543
4.86480941332894,7.04052915653895,-5.33337366275758,-12.0087356775753,-0.116589844226837,-0.0155957406386733,-0.079139731824398
4.86480941332894,7.04052915653895,-5.33337366275758,-12.0087356775753,-0.117228291928768,-0.0156753044575453,-0.0795928835868835
4.86480941332894,7.04052915653895,-5.33337366275758,-12.0087356775753,-0.117864921689034,-0.015754546970129,-0.0800450518727303
4.86480941332894,7.04052915653895,-5.33337366275758,-12.0087356775753,-0.118499733507633,-0.0158334691077471,-0.0804962441325188
4.86480941332894,7.04052915653895,-5.33337366275758,-12.0087356775753,-0.119132727384567,-0.0159120708703995,-0.0809464603662491
4.86480941332894,7.04052915653895,-5.33337366275758,-12.0087356775753,-0.119763903319836,-0.0159903522580862,-0.0813957005739212
4.86480941332894,7.04052915653895,-5.33337366275758,-12.0087356775753,-0.120393268764019,-0.0160683132708073,-0.0818439647555351
4.86480941332894,7.04052915653895,-5.33337366275758,-12.0087356775753,-0.121020816266537,-0.0161459539085627,-0.0822912603616714
4.86480941332894,7.04052915653895,-5.33337366275758,-12.0087356775753,-0.12164656072855,-0.0162232760339975,-0.0827375799417496
4.86480941332894,7.04052915653895,-5.33337366275758,-12.0087356775753,-0.122270494699478,-0.0163002796471119,-0.0831829309463501
4.86480941332894,7.04052915653895,-5.33337366275758,-12.0087356775753,-0.122892618179321,-0.0163769628852606,-0.0836273059248924
4.86480941332894,7.04052915653895,-5.33337366275758,-12.0087356775753,-0.12351293861866,-0.0164533276110888,-0.0840707123279572
4.86480941332894,7.04052915653895,-5.33337366275758,-12.0087356775753,-0.124131456017494,-0.0165293738245964,-0.0845131576061249
4.86480941332894,7.04052915653895,-5.33337366275758,-12.0087356775753,-0.124748177826405,-0.0166051015257835,-0.084954634308815
4.86480941332894,7.04052915653895,-5.33337366275758,-12.0087356775753,-0.12536309659481,-0.0166805125772953,-0.0853951424360275
4.86480941332894,7.04052915653895,-5.33337366275758,-12.0087356775753,-0.125976219773293,-0.0167556051164865,-0.085834689438343
4.86480941332894,7.04052915653895,-5.33337366275758,-12.0087356775753,-0.126587554812431,-0.0168303810060024,-0.0862732753157616
4.86480941332894,7.04052915653895,-5.33337366275758,-12.0087356775753,-0.127197086811066,-0.0169048402458429,-0.0867109000682831
4.86480941332894,7.04052915653895,-5.33337366275758,-12.0087356775753,-0.127804830670357,-0.0169789828360081,-0.0871475636959076
4.86480941332894,7.04052915653895,-5.33337366275758,-12.0087356775753,-0.128410786390305,-0.0170528087764978,-0.0875832661986351
4.86480941332894,7.04052915653895,-5.33337366275758,-12.0087356775753,-0.129014953970909,-0.0171263180673122,-0.0880180075764656
4.86480941332894,7.04052915653895,-5.33337366275758,-12.0087356775753,-0.12961733341217,-0.0171995107084513,-0.0884517952799797
4.86480941332894,7.04052915653895,-5.33337366275758,-12.0087356775753,-0.13021793961525,-0.0172723885625601,-0.0888846218585968
4.86480941332894,7.04052915653895,-5.33337366275758,-12.0087356775753,-0.130816757678986,-0.0173449497669935,-0.0893164947628975
4.86480941332894,7.04052915653895,-5.33337366275758,-12.0087356775753,-0.131413802504539,-0.0174171961843967,-0.0897474139928818
4.86480941332894,7.04052915653895,-5.33337366275758,-12.0087356775753,-0.13200905919075,-0.0174891278147697,-0.0901773795485497
4.86480941332894,7.04052915653895,-5.33337366275758,-12.0087356775753,-0.132602542638779,-0.0175607446581125,-0.0906063988804817
4.86480941332894,7.04052915653895,-5.33337366275758,-12.0087356775753,-0.133194252848625,-0.0176320467144251,-0.0910344645380974
4.86480941332894,7.04052915653895,-5.33337366275758,-12.0087356775753,-0.13378418982029,-0.0177030339837074,-0.0914615839719772
4.86480941332894,7.04052915653895,-5.33337366275758,-12.0087356775753,-0.134372368454933,-0.0177737083286047,-0.0918877497315407
4.86480941332894,7.04052915653895,-5.33337366275758,-12.0087356775753,-0.134958773851395,-0.0178440678864717,-0.0923129692673683
4.86480941332894,7.04052915653895,-5.33337366275758,-12.0087356775753,-0.135543406009674,-0.0179141145199537,-0.0927372425794601
4.86480941332894,7.04052915653895,-5.33337366275758,-12.0087356775753,-0.136126279830933,-0.0179838482290506,-0.0931605771183968
4.86480941332894,7.04052915653895,-5.33337366275758,-12.0087356775753,-0.13670739531517,-0.0180532690137625,-0.0935829654335976
4.86480941332894,7.04052915653895,-5.33337366275758,-12.0087356775753,-0.137286752462387,-0.0181223768740892,-0.0940044149756432
4.86480941332894,7.04052915653895,-5.33337366275758,-12.0087356775753,-0.137864351272583,-0.0181911736726761,-0.0944249182939529
4.86480941332894,7.04052915653895,-5.33337366275758,-12.0087356775753,-0.138440191745758,-0.0182596575468779,-0.0948444828391075
4.86480941332894,7.04052915653895,-5.33337366275758,-12.0087356775753,-0.139014273881912,-0.0183278303593397,-0.0952631086111069
4.86480941332894,7.04052915653895,-5.33337366275758,-12.0087356775753,-0.139586597681046,-0.0183956902474165,-0.095680795609951
4.86480941332894,7.04052915653895,-5.33337366275758,-12.0087356775753,-0.140157178044319,-0.0184632390737534,-0.0960975512862206
4.86480941332894,7.04052915653895,-5.33337366275758,-12.0087356775753,-0.140726000070572,-0.0185304768383503,-0.0965133681893349
4.86480941332894,7.04052915653895,-5.33337366275758,-12.0087356775753,-0.141293078660965,-0.0185974035412073,-0.0969282537698746
4.86480941332894,7.04052915653895,-5.33337366275758,-12.0087356775753,-0.141858413815498,-0.0186640210449696,-0.0973422080278397
4.86480941332894,7.04052915653895,-5.33337366275758,-12.0087356775753,-0.142422005534172,-0.0187303274869919,-0.0977552235126495
4.86480941332894,7.04052915653895,-5.33337366275758,-12.0087356775753,-0.142983853816986,-0.0187963247299194,-0.0981673151254654
4.86480941332894,7.04052915653895,-5.33337366275758,-12.0087356775753,-0.14354395866394,-0.0188620109111071,-0.0985784754157066
4.86480941332894,7.04052915653895,-5.33337366275758,-12.0087356775753,-0.144102334976196,-0.0189273878931999,-0.0989887043833733
4.86480941332894,7.04052915653895,-5.33337366275758,-12.0087356775753,-0.144658967852592,-0.018992455676198,-0.0993980094790459
4.86480941332894,7.04052915653895,-5.33337366275758,-12.0087356775753,-0.14521387219429,-0.0190572142601013,-0.0998063832521439
4.86480941332894,7.04052915653895,-5.33337366275758,-12.0087356775753,-0.145767033100128,-0.019121665507555,-0.100213833153248
4.86480941332894,7.04052915653895,-5.33337366275758,-12.0087356775753,-0.146318465471268,-0.0191858075559139,-0.100620359182358
4.86480941332894,7.04052915653895,-5.33337366275758,-12.0087356775753,-0.146868169307709,-0.0192496404051781,-0.101025961339474
4.86480941332894,7.04052915653895,-5.33337366275758,-12.0087356775753,-0.147416144609451,-0.0193131659179926,-0.101430647075176
4.86480941332894,7.04052915653895,-5.33337366275758,-12.0087356775753,-0.147962406277657,-0.0193763840943575,-0.101834408938885
4.86480941332894,7.04052915653895,-5.33337366275758,-12.0087356775753,-0.148506939411163,-0.0194392949342728,-0.10223725438118
4.86480941332894,7.04052915653895,-5.33337366275758,-12.0087356775753,-0.149049758911133,-0.0195018984377384,-0.102639175951481
4.86480941332894,7.04052915653895,-5.33337366275758,-12.0087356775753,-0.149590849876404,-0.0195641946047544,-0.103040181100369
4.86480941332894,7.04052915653895,-5.33337366275758,-12.0087356775753,-0.150130227208138,-0.019626185297966,-0.103440269827843
4.86480941332894,7.04052915653895,-5.33337366275758,-12.0087356775753,-0.150667890906334,-0.0196878686547279,-0.103839449584484
4.86480941332894,7.04052915653895,-5.33337366275758,-12.0087356775753,-0.151203840970993,-0.0197492465376854,-0.104237712919712
4.86480941332894,7.04052915653895,-5.33337366275758,-12.0087356775753,-0.151738077402115,-0.0198103189468384,-0.104635067284107
4.86480941332894,7.04052915653895,-5.33337366275758,-12.0087356775753,-0.152270600199699,-0.0198710858821869,-0.105031505227089
4.86480941332894,7.04052915653895,-5.33337366275758,-12.0087356775753,-0.152801424264908,-0.0199315473437309,-0.105427034199238
4.86480941332894,7.04052915653895,-5.33337366275758,-12.0087356775753,-0.153330534696579,-0.0199917033314705,-0.105821654200554
4.86480941332894,7.04052915653895,-5.33337366275758,-12.0087356775753,-0.153857946395874,-0.0200515538454056,-0.106215365231037
4.86480941332894,7.04052915653895,-5.33337366275758,-12.0087356775753,-0.154383644461632,-0.0201111007481813,-0.106608167290688
4.86480941332894,7.04052915653895,-5.33337366275758,-12.0087356775753,-0.154907643795013,-0.0201703421771526,-0.107000067830086
4.86480941332894,7.04052915653895,-5.33337366275758,-12.0087356775753,-0.155429944396019,-0.0202292799949646,-0.107391059398651
4.86480941332894,7.04052915653895,-5.33337366275758,-12.0087356775753,-0.155950546264648,-0.0202879142016172,-0.107781149446964
4.86480941332894,7.04052915653895,-5.33337366275758,-12.0087356775753,-0.156469464302063,-0.0203462447971106,-0.108170337975025
4.86480941332894,7.04052915653895,-5.33337366275758,-12.0087356775753,-0.156986683607101,-0.0204042717814446,-0.108558624982834
4.86480941332894,7.04052915653895,-5.33337366275758,-12.0087356775753,-0.157502204179764,-0.0204619970172644,-0.10894601047039
4.86480941332894,7.04052915653895,-5.33337366275758,-12.0087356775753,-0.158016040921211,-0.0205194186419249,-0.109332501888275
4.86480941332894,7.04052915653895,-5.33337366275758,-12.0087356775753,-0.158528193831444,-0.0205765385180712,-0.109718091785908
4.86480941332894,7.04052915653895,-5.33337366275758,-12.0087356775753,-0.159038662910461,-0.0206333547830582,-0.110102787613869
4.86480941332894,7.04052915653895,-5.33337366275758,-12.0087356775753,-0.159547448158264,-0.020689869299531,-0.110486581921577
4.86480941332894,7.04052915653895,-5.33337366275758,-12.0087356775753,-0.160054549574852,-0.0207460820674896,-0.110869482159615
4.86480941332894,7.04052915653895,-5.33337366275758,-12.0087356775753,-0.160559967160225,-0.0208019930869341,-0.11125148832798
4.86480941332894,7.04052915653895,-5.33337366275758,-12.0087356775753,-0.161063700914383,-0.0208576042205095,-0.111632607877254
4.86480941332894,7.04052915653895,-5.33337366275758,-12.0087356775753,-0.161565765738487,-0.0209129136055708,-0.112012833356857
4.86480941332894,7.04052915653895,-5.33337366275758,-12.0087356775753,-0.162066146731377,-0.020967923104763,-0.112392172217369
4.86480941332894,7.04052915653895,-5.33337366275758,-12.0087356775753,-0.162564858794212,-0.0210226308554411,-0.112770617008209
4.86480941332894,7.04052915653895,-5.33337366275758,-12.0087356775753,-0.163061901926994,-0.0210770387202501,-0.113148175179958
4.86480941332894,7.04052915653895,-5.33337366275758,-12.0087356775753,-0.163557276129723,-0.0211311466991901,-0.113524846732616
4.86480941332894,7.04052915653895,-5.33337366275758,-12.0087356775753,-0.164050981402397,-0.0211849547922611,-0.113900631666183
4.86480941332894,7.04052915653895,-5.33337366275758,-12.0087356775753,-0.164543017745018,-0.0212384629994631,-0.11427553743124
4.86480941332894,7.04052915653895,-5.33337366275758,-12.0087356775753,-0.165033385157585,-0.0212916731834412,-0.114649556577206
4.86480941332894,7.04052915653895,-5.33337366275758,-12.0087356775753,-0.16552209854126,-0.0213445834815502,-0.115022696554661
4.86480941332894,7.04052915653895,-5.33337366275758,-12.0087356775753,-0.166009142994881,-0.0213971957564354,-0.115394949913025
4.86480941332894,7.04052915653895,-5.33337366275758,-12.0087356775753,-0.166494533419609,-0.0214495100080967,-0.115766324102879
4.86480941332894,7.04052915653895,-5.33337366275758,-12.0087356775753,-0.166978269815445,-0.0215015262365341,-0.116136819124222
4.86480941332894,7.04052915653895,-5.33337366275758,-12.0087356775753,-0.167460352182388,-0.0215532444417477,-0.116506434977055
4.86480941332894,7.04052915653895,-5.33337366275758,-12.0087356775753,-0.167940780520439,-0.0216046646237373,-0.116875179111958
4.86480941332894,7.04052915653895,-5.33337366275758,-12.0087356775753,-0.168419554829597,-0.0216557867825031,-0.11724304407835
4.86480941332894,7.04052915653895,-5.33337366275758,-12.0087356775753,-0.168896690011024,-0.0217066127806902,-0.117610037326813
4.86480941332894,7.04052915653895,-5.33337366275758,-12.0087356775753,-0.169372171163559,-0.0217571407556534,-0.117976158857346
4.86480941332894,7.04052915653895,-5.33337366275758,-12.0087356775753,-0.169846013188362,-0.0218073725700378,-0.118341401219368
4.86480941332894,7.04052915653895,-5.33337366275758,-12.0087356775753,-0.170318201184273,-0.0218573082238436,-0.118705779314041
4.86480941332894,7.04052915653895,-5.33337366275758,-12.0087356775753,-0.170788750052452,-0.0219069477170706,-0.119069285690784
4.86480941332894,7.04052915653895,-5.33337366275758,-12.0087356775753,-0.1712576597929,-0.0219562910497189,-0.119431920349598
4.86480941332894,7.04052915653895,-5.33337366275758,-12.0087356775753,-0.171724930405617,-0.0220053382217884,-0.119793690741062
4.86480941332894,7.04052915653895,-5.33337366275758,-12.0087356775753,-0.172190561890602,-0.0220540910959244,-0.120154589414597
4.86480941332894,7.04052915653895,-5.33337366275758,-12.0087356775753,-0.172654554247856,-0.0221025478094816,-0.120514623820782
4.86480941332894,7.04052915653895,-5.33337366275758,-12.0087356775753,-0.17311692237854,-0.0221507102251053,-0.120873793959618
4.86480941332894,7.04052915653895,-5.33337366275758,-12.0087356775753,-0.173577651381493,-0.0221985783427954,-0.121232099831104
4.86480941332894,7.04052915653895,-5.33337366275758,-12.0087356775753,-0.174036756157875,-0.0222461521625519,-0.121589541435242
4.86480941332894,7.04052915653895,-5.33337366275758,-12.0087356775753,-0.174494236707687,-0.0222934316843748,-0.12194612622261
4.86480941332894,7.04052915653895,-5.33337366275758,-12.0087356775753,-0.17495009303093,-0.0223404169082642,-0.12230184674263
4.86480941332894,7.04052915653895,-5.33337366275758,-12.0087356775753,-0.175404325127602,-0.0223871096968651,-0.122656710445881
4.86480941332894,7.04052915653895,-5.33337366275758,-12.0087356775753,-0.175856932997704,-0.0224335081875324,-0.123010717332363
4.86480941332894,7.04052915653895,-5.33337366275758,-12.0087356775753,-0.176307916641235,-0.0224796142429113,-0.123363867402077
4.86480941332894,7.04052915653895,-5.33337366275758,-12.0087356775753,-0.176757276058197,-0.0225254278630018,-0.123716160655022
4.86480941332894,7.04052915653895,-5.33337366275758,-12.0087356775753,-0.17720502614975,-0.0225709490478039,-0.124067597091198
4.86480941332894,7.04052915653895,-5.33337366275758,-12.0087356775753,-0.177651166915894,-0.0226161777973175,-0.124418184161186
4.86480941332894,7.04052915653895,-5.33337366275758,-12.0087356775753,-0.178095683455467,-0.0226611141115427,-0.124767914414406
4.86480941332894,7.04052915653895,-5.33337366275758,-12.0087356775753,-0.178538590669632,-0.0227057579904795,-0.125116795301437
4.86480941332894,7.04052915653895,-5.33337366275758,-12.0087356775753,-0.178979888558388,-0.022750111296773,-0.125464826822281
4.86480941332894,7.04052915653895,-5.33337366275758,-12.0087356775753,-0.179419577121735,-0.022794172167778,-0.125812008976936
4.86480941332894,7.04052915653895,-5.33337366275758,-12.0087356775753,-0.179857656359673,-0.0228379424661398,-0.126158341765404
4.86480941332894,7.04052915653895,-5.33337366275758,-12.0087356775753,-0.180294141173363,-0.0228814221918583,-0.126503825187683
4.86480941332894,7.04052915653895,-5.33337366275758,-12.0087356775753,-0.180729016661644,-0.0229246113449335,-0.126848459243774
4.86480941332894,7.04052915653895,-5.33337366275758,-12.0087356775753,-0.181162297725677,-0.0229675099253654,-0.127192258834839
4.86480941332894,7.04052915653895,-5.33337366275758,-12.0087356775753,-0.181593984365463,-0.0230101179331541,-0.127535209059715
4.86480941332894,7.04052915653895,-5.33337366275758,-12.0087356775753,-0.18202406167984,-0.0230524372309446,-0.127877309918404
4.86480941332894,7.04052915653895,-5.33337366275758,-12.0087356775753,-0.182452544569969,-0.0230944659560919,-0.128218576312065
4.86480941332894,7.04052915653895,-5.33337366275758,-12.0087356775753,-0.182879433035851,-0.023136205971241,-0.1285590082407
4.86480941332894,7.04052915653895,-5.33337366275758,-12.0087356775753,-0.183304741978645,-0.023177657276392,-0.128898590803146
4.86480941332894,7.04052915653895,-5.33337366275758,-12.0087356775753,-0.183728456497192,-0.0232188180088997,-0.129237338900566
4.86480941332894,7.04052915653895,-5.33337366275758,-12.0087356775753,-0.184150576591492,-0.0232596918940544,-0.129575252532959
4.86480941332894,7.04052915653895,-5.33337366275758,-12.0087356775753,-0.184571117162704,-0.023300277069211,-0.129912331700325
4.86480941332894,7.04052915653895,-5.33337366275758,-12.0087356775753,-0.184990063309669,-0.0233405735343695,-0.130248576402664
4.86480941332894,7.04052915653895,-5.33337366275758,-12.0087356775753,-0.185407429933548,-0.023380583152175,-0.130583986639977
4.86480941332894,7.04052915653895,-5.33337366275758,-12.0087356775753,-0.18582321703434,-0.0234203040599823,-0.130918562412262
4.86480941332894,7.04052915653895,-5.33337366275758,-12.0087356775753,-0.186237424612045,-0.0234597381204367,-0.131252303719521
4.86480941332894,7.04052915653895,-5.33337366275758,-12.0087356775753,-0.186650052666664,-0.0234988853335381,-0.131585210561752
4.86480941332894,7.04052915653895,-5.33337366275758,-12.0087356775753,-0.187061116099358,-0.0235377456992865,-0.131917282938957
4.86480941332894,7.04052915653895,-5.33337366275758,-12.0087356775753,-0.187470600008965,-0.0235763192176819,-0.132248535752296
4.86480941332894,7.04052915653895,-5.33337366275758,-12.0087356775753,-0.187878504395485,-0.0236146058887243,-0.132578954100609
4.86480941332894,7.04052915653895,-5.33337366275758,-12.0087356775753,-0.18828484416008,-0.0236526075750589,-0.132908552885056
4.86480941332894,7.04052915653895,-5.33337366275758,-12.0087356775753,-0.18868961930275,-0.0236903224140406,-0.133237317204475
4.86480941332894,7.04052915653895,-5.33337366275758,-12.0087356775753,-0.189092829823494,-0.0237277522683144,-0.13356526196003
4.86480941332894,7.04052915653895,-5.33337366275758,-12.0087356775753,-0.189494475722313,-0.0237648971378803,-0.133892387151718
4.86480941332894,7.04052915653895,-5.33337366275758,-12.0087356775753,-0.189894556999207,-0.0238017551600933,-0.134218692779541
4.86480941332894,7.04052915653895,-5.33337366275758,-12.0087356775753,-0.190293073654175,-0.0238383300602436,-0.134544178843498
4.86480941332894,7.04052915653895,-5.33337366275758,-12.0087356775753,-0.190690025687218,-0.0238746199756861,-0.13486884534359
4.86480941332894,7.04052915653895,-5.33337366275758,-12.0087356775753,-0.191085427999496,-0.0239106249064207,-0.135192692279816
4.86480941332894,7.04052915653895,-5.33337366275758,-12.0087356775753,-0.19147926568985,-0.0239463467150927,-0.135515719652176
4.86480941332894,7.04052915653895,-5.33337366275758,-12.0087356775753,-0.191871553659439,-0.0239817835390568,-0.13583792746067
4.86480941332894,7.04052915653895,-5.33337366275758,-12.0087356775753,-0.192262291908264,-0.0240169372409582,-0.136159315705299
4.86480941332894,7.04052915653895,-5.33337366275758,-12.0087356775753,-0.192651480436325,-0.024051807820797,-0.136479884386063
4.86480941332894,7.04052915653895,-5.33337366275758,-12.0087356775753,-0.193039119243622,-0.024086395278573,-0.136799648404121
4.86480941332894,7.04052915653895,-5.33337366275758,-12.0087356775753,-0.193425208330154,-0.0241206996142864,-0.137118592858315
4.86480941332894,7.04052915653895,-5.33337366275758,-12.0087356775753,-0.193809747695923,-0.0241547208279371,-0.137436732649803
4.86480941332894,7.04052915653895,-5.33337366275758,-12.0087356775753,-0.194192737340927,-0.0241884607821703,-0.137754052877426
4.86480941332894,7.04052915653895,-5.33337366275758,-12.0087356775753,-0.194574192166328,-0.0242219176143408,-0.138070568442345
4.86480941332894,7.04052915653895,-5.33337366275758,-12.0087356775753,-0.194954112172127,-0.0242550931870937,-0.138386279344559
4.86480941332894,7.04052915653895,-5.33337366275758,-12.0087356775753,-0.195332482457161,-0.0242879875004292,-0.138701185584068
4.86480941332894,7.04052915653895,-5.33337366275758,-12.0087356775753,-0.195709317922592,-0.0243205986917019,-0.139015287160873
4.86480941332894,7.04052915653895,-5.33337366275758,-12.0087356775753,-0.19608461856842,-0.0243529286235571,-0.139328584074974
4.86480941332894,7.04052915653895,-5.33337366275758,-12.0087356775753,-0.196458384394646,-0.0243849791586399,-0.13964107632637
4.86480941332894,7.04052915653895,-5.33337366275758,-12.0087356775753,-0.196830615401268,-0.0244167484343052,-0.139952763915062
4.86480941332894,7.04052915653895,-5.33337366275758,-12.0087356775753,-0.197201326489449,-0.0244482364505529,-0.140263646841049
4.86480941332894,7.04052915653895,-5.33337366275758,-12.0087356775753,-0.197570502758026,-0.0244794450700283,-0.140573725104332
4.86480941332894,7.04052915653895,-5.33337366275758,-12.0087356775753,-0.197938159108162,-0.0245103742927313,-0.14088299870491
4.86480941332894,7.04052915653895,-5.33337366275758,-12.0087356775753,-0.198304280638695,-0.0245410241186619,-0.141191482543945
4.86480941332894,7.04052915653895,-5.33337366275758,-12.0087356775753,-0.198668882250786,-0.0245713945478201,-0.141499161720276
4.86480941332894,7.04052915653895,-5.33337366275758,-12.0087356775753,-0.199031963944435,-0.0246014855802059,-0.141806051135063
4.86480941332894,7.04052915653895,-5.33337366275758,-12.0087356775753,-0.199393525719643,-0.0246312972158194,-0.142112135887146
4.86480941332894,7.04052915653895,-5.33337366275758,-12.0087356775753,-0.199753567576408,-0.0246608294546604,-0.142417430877686
4.86480941332894,7.04052915653895,-5.33337366275758,-12.0087356775753,-0.200112104415894,-0.0246900841593742,-0.142721936106682
4.86480941332894,7.04052915653895,-5.33337366275758,-12.0087356775753,-0.200469121336937,-0.0247190594673157,-0.143025651574135
4.86480941332894,7.04052915653895,-5.33337366275758,-12.0087356775753,-0.2008246332407,-0.0247477572411299,-0.143328562378883
4.86480941332894,7.04052915653895,-5.33337366275758,-12.0087356775753,-0.201178625226021,-0.0247761774808168,-0.143630683422089
4.86480941332894,7.04052915653895,-5.33337366275758,-12.0087356775753,-0.201531112194061,-0.0248043201863766,-0.143932014703751
4.86480941332894,7.04052915653895,-5.33337366275758,-12.0087356775753,-0.201882094144821,-0.0248321853578091,-0.144232571125031
4.86480941332894,7.04052915653895,-5.33337366275758,-12.0087356775753,-0.2022315710783,-0.0248597729951143,-0.144532337784767
4.86480941332894,7.04052915653895,-5.33337366275758,-12.0087356775753,-0.202579542994499,-0.0248870849609375,-0.144831314682961
4.86480941332894,7.04052915653895,-5.33337366275758,-12.0087356775753,-0.202926009893417,-0.0249141193926334,-0.145129501819611
4.86480941332894,7.04052915653895,-5.33337366275758,-12.0087356775753,-0.203270971775055,-0.0249408781528473,-0.145426914095879
4.86480941332894,7.04052915653895,-5.33337366275758,-12.0087356775753,-0.203614443540573,-0.0249673612415791,-0.145723536610603
4.86480941332894,7.04052915653895,-5.33337366275758,-12.0087356775753,-0.203956410288811,-0.0249935686588287,-0.146019384264946
4.86480941332894,7.04052915653895,-5.33337366275758,-12.0087356775753,-0.204296886920929,-0.0250195004045963,-0.146314442157745
4.86480941332894,7.04052915653895,-5.33337366275758,-12.0087356775753,-0.204635873436928,-0.0250451564788818,-0.146608725190163
4.86480941332894,7.04052915653895,-5.33337366275758,-12.0087356775753,-0.204973369836807,-0.0250705368816853,-0.146902233362198
4.86480941332894,7.04052915653895,-5.33337366275758,-12.0087356775753,-0.205309376120567,-0.0250956434756517,-0.14719495177269
4.86480941332894,7.04052915653895,-5.33337366275758,-12.0087356775753,-0.205643892288208,-0.0251204762607813,-0.1474868953228
4.86480941332894,7.04052915653895,-5.33337366275758,-12.0087356775753,-0.205976918339729,-0.0251450333744287,-0.147778064012527
4.86480941332894,7.04052915653895,-5.33337366275758,-12.0087356775753,-0.206308454275131,-0.0251693166792393,-0.148068457841873
4.86480941332894,7.04052915653895,-5.33337366275758,-12.0087356775753,-0.206638514995575,-0.0251933261752129,-0.148358076810837
4.86480941332894,7.04052915653895,-5.33337366275758,-12.0087356775753,-0.206967085599899,-0.0252170618623495,-0.148646920919418
4.86480941332894,7.04052915653895,-5.33337366275758,-12.0087356775753,-0.207294180989265,-0.0252405237406492,-0.148935005068779
4.86480941332894,7.04052915653895,-5.33337366275758,-12.0087356775753,-0.207619801163673,-0.0252637136727571,-0.149222314357758
4.86480941332894,7.04052915653895,-5.33337366275758,-12.0087356775753,-0.207943946123123,-0.0252866297960281,-0.149508848786354
4.86480941332894,7.04052915653895,-5.33337366275758,-12.0087356775753,-0.208266615867615,-0.0253092739731073,-0.14979462325573
4.86480941332894,7.04052915653895,-5.33337366275758,-12.0087356775753,-0.208587810397148,-0.0253316462039948,-0.150079622864723
4.86480941332894,7.04052915653895,-5.33337366275758,-12.0087356775753,-0.208907529711723,-0.0253537464886904,-0.150363862514496
4.86480941332894,7.04052915653895,-5.33337366275758,-12.0087356775753,-0.209225788712502,-0.0253755748271942,-0.150647327303886
4.86480941332894,7.04052915653895,-5.33337366275758,-12.0087356775753,-0.209542572498322,-0.0253971312195063,-0.150930032134056
4.86480941332894,7.04052915653895,-5.33337366275758,-12.0087356775753,-0.209857895970345,-0.0254184156656265,-0.151211977005005
4.86480941332894,7.04052915653895,-5.33337366275758,-12.0087356775753,-0.210171744227409,-0.025439428165555,-0.151493161916733
4.86480941332894,7.04052915653895,-5.33337366275758,-12.0087356775753,-0.210484132170677,-0.0254601705819368,-0.15177358686924
4.86480941332894,7.04052915653895,-5.33337366275758,-12.0087356775753,-0.210795059800148,-0.025480642914772,-0.152053251862526
4.86480941332894,7.04052915653895,-5.33337366275758,-12.0087356775753,-0.211104527115822,-0.0255008433014154,-0.152332156896591
4.86480941332894,7.04052915653895,-5.33337366275758,-12.0087356775753,-0.211412534117699,-0.0255207736045122,-0.152610301971436
4.86480941332894,7.04052915653895,-5.33337366275758,-12.0087356775753,-0.21171909570694,-0.0255404338240623,-0.152887687087059
4.86480941332894,7.04052915653895,-5.33337366275758,-12.0087356775753,-0.212024196982384,-0.0255598239600658,-0.153164312243462
4.86480941332894,7.04052915653895,-5.33337366275758,-12.0087356775753,-0.212327852845192,-0.0255789458751678,-0.153440177440643
4.86480941332894,7.04052915653895,-5.33337366275758,-12.0087356775753,-0.212630048394203,-0.0255977977067232,-0.153715297579765
4.86480941332894,7.04052915653895,-5.33337366275758,-12.0087356775753,-0.212930798530579,-0.0256163813173771,-0.153989657759666
4.86480941332894,7.04052915653895,-5.33337366275758,-12.0087356775753,-0.213230103254318,-0.0256346948444843,-0.154263272881508
4.86480941332894,7.04052915653895,-5.33337366275758,-12.0087356775753,-0.213527962565422,-0.0256527401506901,-0.154536128044128
4.86480941332894,7.04052915653895,-5.33337366275758,-12.0087356775753,-0.21382437646389,-0.0256705172359943,-0.154808238148689
4.86480941332894,7.04052915653895,-5.33337366275758,-12.0087356775753,-0.214119344949722,-0.0256880261003971,-0.15507960319519
4.86480941332894,7.04052915653895,-5.33337366275758,-12.0087356775753,-0.21441288292408,-0.0257052667438984,-0.155350223183632
4.86480941332894,7.04052915653895,-5.33337366275758,-12.0087356775753,-0.214704975485802,-0.0257222410291433,-0.155620098114014
4.86480941332894,7.04052915653895,-5.33337366275758,-12.0087356775753,-0.214995637536049,-0.0257389470934868,-0.155889213085175
4.86480941332894,7.04052915653895,-5.33337366275758,-12.0087356775753,-0.21528485417366,-0.0257553867995739,-0.156157582998276
4.86480941332894,7.04052915653895,-5.33337366275758,-12.0087356775753,-0.215572640299797,-0.0257715601474047,-0.156425222754478
4.86480941332894,7.04052915653895,-5.33337366275758,-12.0087356775753,-0.215858995914459,-0.025787465274334,-0.156692117452621
4.86480941332894,7.04052915653895,-5.33337366275758,-12.0087356775753,-0.216143921017647,-0.0258031040430069,-0.156958267092705
4.86480941332894,7.04052915653895,-5.33337366275758,-12.0087356775753,-0.21642741560936,-0.0258184764534235,-0.157223671674728
4.86480941332894,7.04052915653895,-5.33337366275758,-12.0087356775753,-0.216709479689598,-0.0258335843682289,-0.157488346099854
4.86480941332894,7.04052915653895,-5.33337366275758,-12.0087356775753,-0.216990128159523,-0.025848425924778,-0.157752275466919
4.86480941332894,7.04052915653895,-5.33337366275758,-12.0087356775753,-0.217269346117973,-0.0258630011230707,-0.158015459775925
4.86480941332894,7.04052915653895,-5.33337366275758,-12.0087356775753,-0.21754714846611,-0.0258773118257523,-0.158277913928032
4.86480941332894,7.04052915653895,-5.33337366275758,-12.0087356775753,-0.217823520302773,-0.0258913580328226,-0.158539637923241
4.86480941332894,7.04052915653895,-5.33337366275758,-12.0087356775753,-0.218098476529121,-0.0259051397442818,-0.15880061686039
4.86480941332894,7.04052915653895,-5.33337366275758,-12.0087356775753,-0.218372017145157,-0.0259186569601297,-0.15906086564064
4.86480941332894,7.04052915653895,-5.33337366275758,-12.0087356775753,-0.218644142150879,-0.0259319096803665,-0.159320384263992
4.86480941332894,7.04052915653895,-5.33337366275758,-12.0087356775753,-0.218914851546288,-0.0259448979049921,-0.159579172730446
4.86480941332894,7.04052915653895,-5.33337366275758,-12.0087356775753,-0.219184145331383,-0.0259576216340065,-0.159837231040001
4.86480941332894,7.04052915653895,-5.33337366275758,-12.0087356775753,-0.219452038407326,-0.0259700827300549,-0.160094559192657
4.86480941332894,7.04052915653895,-5.33337366275758,-12.0087356775753,-0.219718515872955,-0.025982279330492,-0.160351157188416
4.86480941332894,7.04052915653895,-5.33337366275758,-12.0087356775753,-0.219983592629433,-0.0259942132979631,-0.160607025027275
4.86480941332894,7.04052915653895,-5.33337366275758,-12.0087356775753,-0.220247268676758,-0.0260058846324682,-0.160862162709236
4.86480941332894,7.04052915653895,-5.33337366275758,-12.0087356775753,-0.22050952911377,-0.0260172933340073,-0.16111658513546
4.86480941332894,7.04052915653895,-5.33337366275758,-12.0087356775753,-0.220770388841629,-0.0260284394025803,-0.161370277404785
4.86480941332894,7.04052915653895,-5.33337366275758,-12.0087356775753,-0.221029847860336,-0.0260393228381872,-0.161623239517212
4.86480941332894,7.04052915653895,-5.33337366275758,-12.0087356775753,-0.221287906169891,-0.0260499455034733,-0.161875486373901
4.86480941332894,7.04052915653895,-5.33337366275758,-12.0087356775753,-0.221544578671455,-0.0260603055357933,-0.162127017974854
4.86480941332894,7.04052915653895,-5.33337366275758,-12.0087356775753,-0.221799850463867,-0.0260704047977924,-0.162377819418907
4.86480941332894,7.04052915653895,-5.33337366275758,-12.0087356775753,-0.222053736448288,-0.0260802432894707,-0.162627905607224
4.86480941332894,7.04052915653895,-5.33337366275758,-12.0087356775753,-0.222306221723557,-0.026089821010828,-0.162877276539803
4.86480941332894,7.04052915653895,-5.33337366275758,-12.0087356775753,-0.222557321190834,-0.0260991379618645,-0.163125917315483
4.86480941332894,7.04052915653895,-5.33337366275758,-12.0087356775753,-0.222807034850121,-0.02610819414258,-0.163373842835426
4.86480941332894,7.04052915653895,-5.33337366275758,-12.0087356775753,-0.223055362701416,-0.0261169895529747,-0.163621053099632
4.86480941332894,7.04052915653895,-5.33337366275758,-12.0087356775753,-0.22330230474472,-0.0261255241930485,-0.163867548108101
4.86480941332894,7.04052915653895,-5.33337366275758,-12.0087356775753,-0.223547860980034,-0.0261337999254465,-0.164113342761993
4.86480941332894,7.04052915653895,-5.33337366275758,-12.0087356775753,-0.223792031407356,-0.0261418167501688,-0.164358422160149
4.86480941332894,7.04052915653895,-5.33337366275758,-12.0087356775753,-0.224034816026688,-0.0261495728045702,-0.164602786302567
4.86480941332894,7.04052915653895,-5.33337366275758,-12.0087356775753,-0.224276229739189,-0.0261570699512959,-0.164846435189247
4.86480941332894,7.04052915653895,-5.33337366275758,-12.0087356775753,-0.2245162576437,-0.0261643081903458,-0.165089383721352
4.86480941332894,7.04052915653895,-5.33337366275758,-12.0087356775753,-0.22475491464138,-0.0261712875217199,-0.165331616997719
4.86480941332894,7.04052915653895,-5.33337366275758,-12.0087356775753,-0.224992200732231,-0.0261780098080635,-0.16557314991951
4.86480941332894,7.04052915653895,-5.33337366275758,-12.0087356775753,-0.225228115916252,-0.0261844731867313,-0.165813967585564
4.86480941332894,7.04052915653895,-5.33337366275758,-12.0087356775753,-0.225462660193443,-0.0261906776577234,-0.166054084897041
4.86480941332894,7.04052915653895,-5.33337366275758,-12.0087356775753,-0.225695833563805,-0.0261966250836849,-0.166293501853943
4.86480941332894,7.04052915653895,-5.33337366275758,-12.0087356775753,-0.225927636027336,-0.0262023154646158,-0.166532203555107
4.86480941332894,7.04052915653895,-5.33337366275758,-12.0087356775753,-0.226158082485199,-0.0262077488005161,-0.166770204901695
4.86480941332894,7.04052915653895,-5.33337366275758,-12.0087356775753,-0.226387158036232,-0.0262129250913858,-0.167007505893707
4.86480941332894,7.04052915653895,-5.33337366275758,-12.0087356775753,-0.226614877581596,-0.026217844337225,-0.167244106531143
4.86480941332894,7.04052915653895,-5.33337366275758,-12.0087356775753,-0.226841226220131,-0.0262225065380335,-0.167480006814003
4.86480941332894,7.04052915653895,-5.33337366275758,-12.0087356775753,-0.227066218852997,-0.0262269135564566,-0.167715206742287
4.86480941332894,7.04052915653895,-5.33337366275758,-12.0087356775753,-0.227289855480194,-0.0262310635298491,-0.167949706315994
4.86480941332894,7.04052915653895,-5.33337366275758,-12.0087356775753,-0.227512136101723,-0.0262349583208561,-0.168183520436287
4.86480941332894,7.04052915653895,-5.33337366275758,-12.0087356775753,-0.227733060717583,-0.0262385979294777,-0.168416634202003
4.86480941332894,7.04052915653895,-5.33337366275758,-12.0087356775753,-0.227952629327774,-0.0262419804930687,-0.168649047613144
4.86480941332894,7.04052915653895,-5.33337366275758,-12.0087356775753,-0.228170856833458,-0.0262451078742743,-0.168880775570869
4.86480941332894,7.04052915653895,-5.33337366275758,-12.0087356775753,-0.228387728333473,-0.0262479819357395,-0.169111803174019
4.86480941332894,7.04052915653895,-5.33337366275758,-12.0087356775753,-0.228603258728981,-0.0262506008148193,-0.169342145323753
4.86480941332894,7.04052915653895,-5.33337366275758,-12.0087356775753,-0.22881743311882,-0.0262529645115137,-0.169571787118912
4.86480941332894,7.04052915653895,-5.33337366275758,-12.0087356775753,-0.229030266404152,-0.0262550748884678,-0.169800743460655
4.86480941332894,7.04052915653895,-5.33337366275758,-12.0087356775753,-0.229241758584976,-0.0262569300830364,-0.170029014348984
4.86480941332894,7.04052915653895,-5.33337366275758,-12.0087356775753,-0.229451909661293,-0.0262585319578648,-0.170256599783897
4.86480941332894,7.04052915653895,-5.33337366275758,-12.0087356775753,-0.229660719633102,-0.0262598805129528,-0.170483499765396
4.86480941332894,7.04052915653895,-5.33337366275758,-12.0087356775753,-0.229868188500404,-0.0262609757483006,-0.17070971429348
4.86480941332894,7.04052915653895,-5.33337366275758,-12.0087356775753,-0.23007433116436,-0.026261817663908,-0.170935243368149
4.86480941332894,7.04052915653895,-5.33337366275758,-12.0087356775753,-0.230279132723808,-0.0262624062597752,-0.171160086989403
4.86480941332894,7.04052915653895,-5.33337366275758,-12.0087356775753,-0.23048260807991,-0.0262627433985472,-0.171384245157242
4.86480941332894,7.04052915653895,-5.33337366275758,-12.0087356775753,-0.230684742331505,-0.0262628272175789,-0.171607717871666
4.86480941332894,7.04052915653895,-5.33337366275758,-12.0087356775753,-0.230885550379753,-0.0262626595795155,-0.171830505132675
4.86480941332894,7.04052915653895,-5.33337366275758,-12.0087356775753,-0.231085032224655,-0.0262622404843569,-0.172052621841431
4.86480941332894,7.04052915653895,-5.33337366275758,-12.0087356775753,-0.231283187866211,-0.026261568069458,-0.172274053096771
4.86480941332894,7.04052915653895,-5.33337366275758,-12.0087356775753,-0.23148001730442,-0.026260644197464,-0.172494813799858
4.86480941332894,7.04052915653895,-5.33337366275758,-12.0087356775753,-0.231675520539284,-0.02625947073102,-0.17271488904953
4.86480941332894,7.04052915653895,-5.33337366275758,-12.0087356775753,-0.231869712471962,-0.0262580458074808,-0.172934293746948
4.86480941332894,7.04052915653895,-5.33337366275758,-12.0087356775753,-0.232062578201294,-0.0262563694268465,-0.173153027892113
4.86480941332894,7.04052915653895,-5.33337366275758,-12.0087356775753,-0.232254132628441,-0.0262544434517622,-0.173371076583862
4.86480941332894,7.04052915653895,-5.33337366275758,-12.0087356775753,-0.232444360852242,-0.0262522660195827,-0.173588454723358
4.86480941332894,7.04052915653895,-5.33337366275758,-12.0087356775753,-0.232633277773857,-0.0262498389929533,-0.1738051623106
4.86480941332894,7.04052915653895,-5.33337366275758,-12.0087356775753,-0.232820883393288,-0.0262471623718739,-0.174021199345589
4.86480941332894,7.04052915653895,-5.33337366275758,-12.0087356775753,-0.233007177710533,-0.0262442361563444,-0.174236565828323
4.86480941332894,7.04052915653895,-5.33337366275758,-12.0087356775753,-0.233192160725594,-0.026241060346365,-0.174451261758804
4.86480941332894,7.04052915653895,-5.33337366275758,-12.0087356775753,-0.233375832438469,-0.0262376349419355,-0.174665287137032
4.86480941332894,7.04052915653895,-5.33337366275758,-12.0087356775753,-0.233558192849159,-0.0262339599430561,-0.174878641963005
4.86480941332894,7.04052915653895,-5.33337366275758,-12.0087356775753,-0.233739256858826,-0.0262300372123718,-0.175091341137886
4.86480941332894,7.04052915653895,-5.33337366275758,-12.0087356775753,-0.233919009566307,-0.0262258648872375,-0.175303369760513
4.86480941332894,7.04052915653895,-5.33337366275758,-12.0087356775753,-0.234097465872765,-0.0262214448302984,-0.175514727830887
4.86480941332894,7.04052915653895,-5.33337366275758,-12.0087356775753,-0.234274625778198,-0.0262167770415545,-0.175725430250168
4.86480941332894,7.04052915653895,-5.33337366275758,-12.0087356775753,-0.234450474381447,-0.0262118615210056,-0.175935462117195
4.86480941332894,7.04052915653895,-5.33337366275758,-12.0087356775753,-0.234625026583672,-0.026206698268652,-0.17614483833313
4.86480941332894,7.04052915653895,-5.33337366275758,-12.0087356775753,-0.234798282384872,-0.0262012872844934,-0.176353558897972
4.86480941332894,7.04052915653895,-5.33337366275758,-12.0087356775753,-0.234970256686211,-0.0261956304311752,-0.176561608910561
4.86480941332894,7.04052915653895,-5.33337366275758,-12.0087356775753,-0.235140934586525,-0.0261897258460522,-0.176769003272057
4.86480941332894,7.04052915653895,-5.33337366275758,-12.0087356775753,-0.235310316085815,-0.0261835753917694,-0.17697574198246
4.86480941332894,7.04052915653895,-5.33337366275758,-12.0087356775753,-0.235478416085243,-0.0261771772056818,-0.177181825041771
4.86480941332894,7.04052915653895,-5.33337366275758,-12.0087356775753,-0.235645219683647,-0.0261705331504345,-0.177387252449989
4.86480941332894,7.04052915653895,-5.33337366275758,-12.0087356775753,-0.235810741782188,-0.0261636432260275,-0.177592024207115
4.86480941332894,7.04052915653895,-5.33337366275758,-12.0087356775753,-0.235974982380867,-0.0261565074324608,-0.177796140313148
4.86480941332894,7.04052915653895,-5.33337366275758,-12.0087356775753,-0.236137941479683,-0.0261491257697344,-0.177999600768089
4.86480941332894,7.04052915653895,-5.33337366275758,-12.0087356775753,-0.236299619078636,-0.0261415001004934,-0.178202420473099
4.86480941332894,7.04052915653895,-5.33337366275758,-12.0087356775753,-0.236460015177727,-0.0261336285620928,-0.178404584527016
4.86480941332894,7.04052915653895,-5.33337366275758,-12.0087356775753,-0.236619129776955,-0.0261255111545324,-0.17860609292984
4.86480941332894,7.04052915653895,-5.33337366275758,-12.0087356775753,-0.23677696287632,-0.0261171497404575,-0.178806960582733
4.86480941332894,7.04052915653895,-5.33337366275758,-12.0087356775753,-0.236933529376984,-0.0261085443198681,-0.179007172584534
4.86480941332894,7.04052915653895,-5.33337366275758,-12.0087356775753,-0.237088814377785,-0.0260996948927641,-0.179206743836403
4.86480941332894,7.04052915653895,-5.33337366275758,-12.0087356775753,-0.237242832779884,-0.0260906014591455,-0.17940565943718
4.86480941332894,7.04052915653895,-5.33337366275758,-12.0087356775753,-0.237395584583282,-0.0260812640190125,-0.179603934288025
4.86480941332894,7.04052915653895,-5.33337366275758,-12.0087356775753,-0.237547054886818,-0.0260716825723648,-0.179801568388939
4.86480941332894,7.04052915653895,-5.33337366275758,-12.0087356775753,-0.237697258591652,-0.0260618589818478,-0.179998561739922
4.86480941332894,7.04052915653895,-5.33337366275758,-12.0087356775753,-0.237846195697784,-0.0260517913848162,-0.180194899439812
4.86480941332894,7.04052915653895,-5.33337366275758,-12.0087356775753,-0.237993881106377,-0.0260414816439152,-0.180390596389771
4.86480941332894,7.04052915653895,-5.33337366275758,-12.0087356775753,-0.238140299916267,-0.0260309278964996,-0.180585652589798
4.86480941332894,7.04052915653895,-5.33337366275758,-12.0087356775753,-0.238285452127457,-0.0260201320052147,-0.180780082941055
4.86480941332894,7.04052915653895,-5.33337366275758,-12.0087356775753,-0.238429352641106,-0.0260090939700603,-0.180973872542381
4.86480941332894,7.04052915653895,-5.33337366275758,-12.0087356775753,-0.238571986556053,-0.0259978137910366,-0.181167021393776
4.86480941332894,7.04052915653895,-5.33337366275758,-12.0087356775753,-0.23871336877346,-0.0259862933307886,-0.181359529495239
4.86480941332894,7.04052915653895,-5.33337366275758,-12.0087356775753,-0.238853499293327,-0.0259745307266712,-0.181551396846771
4.86480941332894,7.04052915653895,-5.33337366275758,-12.0087356775753,-0.238992378115654,-0.0259625278413296,-0.181742638349533
4.86480941332894,7.04052915653895,-5.33337366275758,-12.0087356775753,-0.23913000524044,-0.0259502828121185,-0.181933239102364
4.86480941332894,7.04052915653895,-5.33337366275758,-12.0087356775753,-0.239266380667686,-0.0259377975016832,-0.182123214006424
4.86480941332894,7.04052915653895,-5.33337366275758,-12.0087356775753,-0.239401504397392,-0.0259250719100237,-0.182312548160553
4.86480941332894,7.04052915653895,-5.33337366275758,-12.0087356775753,-0.239535376429558,-0.0259121060371399,-0.182501256465912
4.86480941332894,7.04052915653895,-5.33337366275758,-12.0087356775753,-0.239668011665344,-0.0258988998830318,-0.182689338922501
4.86480941332894,7.04052915653895,-5.33337366275758,-12.0087356775753,-0.23979939520359,-0.0258854534476995,-0.182876780629158
4.86480941332894,7.04052915653895,-5.33337366275758,-12.0087356775753,-0.239929541945457,-0.025871766731143,-0.183063596487045
4.86480941332894,7.04052915653895,-5.33337366275758,-12.0087356775753,-0.240058451890945,-0.0258578415960073,-0.183249786496162
4.86480941332894,7.04052915653895,-5.33337366275758,-12.0087356775753,-0.240186125040054,-0.0258436761796474,-0.183435350656509
4.86480941332894,7.04052915653895,-5.33337366275758,-12.0087356775753,-0.240312561392784,-0.0258292723447084,-0.183620288968086
4.86480941332894,7.04052915653895,-5.33337366275758,-12.0087356775753,-0.240437760949135,-0.0258146300911903,-0.183804601430893
4.86480941332894,7.04052915653895,-5.33337366275758,-12.0087356775753,-0.240561723709106,-0.025799747556448,-0.18398828804493
4.86480941332894,7.04052915653895,-5.33337366275758,-12.0087356775753,-0.240684449672699,-0.0257846284657717,-0.184171363711357
4.86480941332894,7.04052915653895,-5.33337366275758,-12.0087356775753,-0.240805953741074,-0.0257692709565163,-0.184353813529015
4.86480941332894,7.04052915653895,-5.33337366275758,-12.0087356775753,-0.240926221013069,-0.0257536750286818,-0.184535637497902
4.86480941332894,7.04052915653895,-5.33337366275758,-12.0087356775753,-0.241045266389847,-0.0257378406822681,-0.18471685051918
4.86480941332894,7.04052915653895,-5.33337366275758,-12.0087356775753,-0.241163074970245,-0.0257217697799206,-0.184897437691689
4.86480941332894,7.04052915653895,-5.33337366275758,-12.0087356775753,-0.241279661655426,-0.0257054604589939,-0.185077413916588
4.86480941332894,7.04052915653895,-5.33337366275758,-12.0087356775753,-0.241395026445389,-0.0256889145821333,-0.185256764292717
4.86480941332894,7.04052915653895,-5.33337366275758,-12.0087356775753,-0.241509169340134,-0.0256721321493387,-0.185435503721237
4.86480941332894,7.04052915653895,-5.33337366275758,-12.0087356775753,-0.241622090339661,-0.0256551131606102,-0.185613632202148
4.86480941332894,7.04052915653895,-5.33337366275758,-12.0087356775753,-0.24173378944397,-0.0256378576159477,-0.18579113483429
4.86480941332894,7.04052915653895,-5.33337366275758,-12.0087356775753,-0.241844281554222,-0.0256203655153513,-0.185968026518822
4.86480941332894,7.04052915653895,-5.33337366275758,-12.0087356775753,-0.241953551769257,-0.0256026387214661,-0.186144307255745
4.86480941332894,7.04052915653895,-5.33337366275758,-12.0087356775753,-0.242061614990234,-0.0255846753716469,-0.186319977045059
4.86480941332894,7.04052915653895,-5.33337366275758,-12.0087356775753,-0.242168456315994,-0.0255664773285389,-0.186495035886765
4.86480941332894,7.04052915653895,-5.33337366275758,-12.0087356775753,-0.242274090647697,-0.025548042729497,-0.186669483780861
4.86480941332894,7.04052915653895,-5.33337366275758,-12.0087356775753,-0.242378517985344,-0.0255293734371662,-0.186843320727348
4.86480941332894,7.04052915653895,-5.33337366275758,-12.0087356775753,-0.242481738328934,-0.0255104694515467,-0.187016546726227
4.86480941332894,7.04052915653895,-5.33337366275758,-12.0087356775753,-0.242583751678467,-0.0254913307726383,-0.187189176678658
4.86480941332894,7.04052915653895,-5.33337366275758,-12.0087356775753,-0.242684558033943,-0.0254719574004412,-0.187361195683479
4.86480941332894,7.04052915653895,-5.33337366275758,-12.0087356775753,-0.242784157395363,-0.0254523511976004,-0.187532603740692
4.86480941332894,7.04052915653895,-5.33337366275758,-12.0087356775753,-0.242882564663887,-0.0254325103014708,-0.187703415751457
4.86480941332894,7.04052915653895,-5.33337366275758,-12.0087356775753,-0.242979764938354,-0.0254124347120523,-0.187873616814613
4.86480941332894,7.04052915653895,-5.33337366275758,-12.0087356775753,-0.243075773119926,-0.0253921262919903,-0.188043221831322
4.86480941332894,7.04052915653895,-5.33337366275758,-12.0087356775753,-0.243170574307442,-0.0253715850412846,-0.188212230801582
4.86480941332894,7.04052915653895,-5.33337366275758,-12.0087356775753,-0.243264183402061,-0.0253508109599352,-0.188380628824234
4.86480941332894,7.04052915653895,-5.33337366275758,-12.0087356775753,-0.243356600403786,-0.0253298040479422,-0.188548430800438
4.86480941332894,7.04052915653895,-5.33337366275758,-12.0087356775753,-0.243447825312614,-0.0253085643053055,-0.188715636730194
4.86480941332894,7.04052915653895,-5.33337366275758,-12.0087356775753,-0.243537858128548,-0.0252870917320251,-0.188882246613503
4.86480941332894,7.04052915653895,-5.33337366275758,-12.0087356775753,-0.243626698851585,-0.0252653863281012,-0.189048260450363
4.86480941332894,7.04052915653895,-5.33337366275758,-12.0087356775753,-0.243714347481728,-0.0252434499561787,-0.189213678240776
4.86480941332894,7.04052915653895,-5.33337366275758,-12.0087356775753,-0.243800818920135,-0.0252212807536125,-0.189378499984741
4.86480941332894,7.04052915653895,-5.33337366275758,-12.0087356775753,-0.243886098265648,-0.0251988805830479,-0.189542725682259
4.86480941332894,7.04052915653895,-5.33337366275758,-12.0087356775753,-0.243970200419426,-0.0251762494444847,-0.189706355333328
4.86480941332894,7.04052915653895,-5.33337366275758,-12.0087356775753,-0.24405312538147,-0.0251533873379231,-0.18986938893795
4.86480941332894,7.04052915653895,-5.33337366275758,-12.0087356775753,-0.244134858250618,-0.0251302942633629,-0.190031841397285
4.86480941332894,7.04052915653895,-5.33337366275758,-12.0087356775753,-0.244215413928032,-0.0251069702208042,-0.190193697810173
4.86480941332894,7.04052915653895,-5.33337366275758,-12.0087356775753,-0.244294792413712,-0.025083415210247,-0.190354973077774
4.86480941332894,7.04052915653895,-5.33337366275758,-12.0087356775753,-0.244372993707657,-0.0250596310943365,-0.190515652298927
4.86480941332894,7.04052915653895,-5.33337366275758,-12.0087356775753,-0.244450032711029,-0.0250356160104275,-0.190675750374794
4.86480941332894,7.04052915653895,-5.33337366275758,-12.0087356775753,-0.244525894522667,-0.0250113718211651,-0.190835252404213
4.86480941332894,7.04052915653895,-5.33337366275758,-12.0087356775753,-0.24460057914257,-0.0249868985265493,-0.190994173288345
4.86480941332894,7.04052915653895,-5.33337366275758,-12.0087356775753,-0.244674101471901,-0.0249621961265802,-0.191152513027191
4.86480941332894,7.04052915653895,-5.33337366275758,-12.0087356775753,-0.244746446609497,-0.0249372646212578,-0.19131027162075
4.86480941332894,7.04052915653895,-5.33337366275758,-12.0087356775753,-0.24481762945652,-0.024912104010582,-0.191467434167862
4.86480941332894,7.04052915653895,-5.33337366275758,-12.0087356775753,-0.24488765001297,-0.0248867142945528,-0.191624015569687
4.86480941332894,7.04052915653895,-5.33337366275758,-12.0087356775753,-0.244956508278847,-0.0248610954731703,-0.191780015826225
4.86480941332894,7.04052915653895,-5.33337366275758,-12.0087356775753,-0.24502420425415,-0.0248352494090796,-0.191935434937477
4.86480941332894,7.04052915653895,-5.33337366275758,-12.0087356775753,-0.245090737938881,-0.0248091742396355,-0.192090272903442
4.86480941332894,7.04052915653895,-5.33337366275758,-12.0087356775753,-0.245156109333038,-0.0247828718274832,-0.192244544625282
4.86480941332894,7.04052915653895,-5.33337366275758,-12.0087356775753,-0.245220318436623,-0.0247563421726227,-0.192398235201836
4.86480941332894,7.04052915653895,-5.33337366275758,-12.0087356775753,-0.245283380150795,-0.024729585275054,-0.192551344633102
4.86480941332894,7.04052915653895,-5.33337366275758,-12.0087356775753,-0.245345279574394,-0.0247026011347771,-0.192703872919083
4.86480941332894,7.04052915653895,-5.33337366275758,-12.0087356775753,-0.245406031608582,-0.024675389751792,-0.192855834960938
4.86480941332894,7.04052915653895,-5.33337366275758,-12.0087356775753,-0.245465636253357,-0.0246479511260986,-0.193007215857506
4.86480941332894,7.04052915653895,-5.33337366275758,-12.0087356775753,-0.24552409350872,-0.0246202852576971,-0.193158030509949
4.86480941332894,7.04052915653895,-5.33337366275758,-12.0087356775753,-0.245581388473511,-0.0245923940092325,-0.193308278918266
4.86480941332894,7.04052915653895,-5.33337366275758,-12.0087356775753,-0.24563755095005,-0.0245642755180597,-0.193457946181297
4.86480941332894,7.04052915653895,-5.33337366275758,-12.0087356775753,-0.245692566037178,-0.0245359316468239,-0.193607047200203
4.86480941332894,7.04052915653895,-5.33337366275758,-12.0087356775753,-0.245746433734894,-0.024507362395525,-0.193755581974983
4.86480941332894,7.04052915653895,-5.33337366275758,-12.0087356775753,-0.245799154043198,-0.024478567764163,-0.193903535604477
4.86480941332894,7.04052915653895,-5.33337366275758,-12.0087356775753,-0.245850741863251,-0.024449547752738,-0.194050922989845
4.86480941332894,7.04052915653895,-5.33337366275758,-12.0087356775753,-0.245901182293892,-0.0244203023612499,-0.194197744131088
4.86480941332894,7.04052915653895,-5.33337366275758,-12.0087356775753,-0.245950490236282,-0.0243908334523439,-0.194343999028206
4.86480941332894,7.04052915653895,-5.33337366275758,-12.0087356775753,-0.245998665690422,-0.0243611391633749,-0.194489687681198
4.86480941332894,7.04052915653895,-5.33337366275758,-12.0087356775753,-0.24604569375515,-0.0243312194943428,-0.194634824991226
4.86480941332894,7.04052915653895,-5.33337366275758,-12.0087356775753,-0.246091589331627,-0.0243010763078928,-0.194779396057129
4.86480941332894,7.04052915653895,-5.33337366275758,-12.0087356775753,-0.246136352419853,-0.0242707096040249,-0.194923400878906
4.86480941332894,7.04052915653895,-5.33337366275758,-12.0087356775753,-0.246179983019829,-0.0242401193827391,-0.195066839456558
4.86480941332894,7.04052915653895,-5.33337366275758,-12.0087356775753,-0.246222496032715,-0.0242093056440353,-0.195209726691246
4.86480941332894,7.04052915653895,-5.33337366275758,-12.0087356775753,-0.24626387655735,-0.0241782683879137,-0.195352047681808
4.86480941332894,7.04052915653895,-5.33337366275758,-12.0087356775753,-0.246304124593735,-0.0241470076143742,-0.195493817329407
4.86480941332894,7.04052915653895,-5.33337366275758,-12.0087356775753,-0.24634325504303,-0.0241155233234167,-0.19563502073288
4.86480941332894,7.04052915653895,-5.33337366275758,-12.0087356775753,-0.246381267905235,-0.0240838173776865,-0.195775672793388
4.86480941332894,7.04052915653895,-5.33337366275758,-12.0087356775753,-0.24641814827919,-0.0240518879145384,-0.195915758609772
4.86480941332894,7.04052915653895,-5.33337366275758,-12.0087356775753,-0.246453911066055,-0.0240197367966175,-0.196055293083191
4.86480941332894,7.04052915653895,-5.33337366275758,-12.0087356775753,-0.246488556265831,-0.0239873640239239,-0.196194276213646
4.86480941332894,7.04052915653895,-5.33337366275758,-12.0087356775753,-0.246522083878517,-0.0239547695964575,-0.196332708001137
4.86480941332894,7.04052915653895,-5.33337366275758,-12.0087356775753,-0.246554493904114,-0.0239219535142183,-0.196470588445663
4.86480941332894,7.04052915653895,-5.33337366275758,-12.0087356775753,-0.246585786342621,-0.0238889157772064,-0.196607917547226
4.86480941332894,7.04052915653895,-5.33337366275758,-12.0087356775753,-0.2466159760952,-0.0238556563854218,-0.196744695305824
4.86480941332894,7.04052915653895,-5.33337366275758,-12.0087356775753,-0.246645048260689,-0.0238221772015095,-0.196880921721458
4.86480941332894,7.04052915653895,-5.33337366275758,-12.0087356775753,-0.24667301774025,-0.0237884763628244,-0.197016596794128
4.86480941332894,7.04052915653895,-5.33337366275758,-12.0087356775753,-0.246699869632721,-0.0237545557320118,-0.197151720523834
4.86480941332894,7.04052915653895,-5.33337366275758,-12.0087356775753,-0.246725618839264,-0.0237204134464264,-0.197286307811737
4.86480941332894,7.04052915653895,-5.33337366275758,-12.0087356775753,-0.246750265359879,-0.0236860513687134,-0.197420343756676
4.86480941332894,7.04052915653895,-5.33337366275758,-12.0087356775753,-0.246773809194565,-0.0236514694988728,-0.19755382835865
4.86480941332894,7.04052915653895,-5.33337366275758,-12.0087356775753,-0.246796250343323,-0.0236166678369045,-0.197686776518822
4.86480941332894,7.04052915653895,-5.33337366275758,-12.0087356775753,-0.246817588806152,-0.0235816463828087,-0.197819173336029
4.86480941332894,7.04052915653895,-5.33337366275758,-12.0087356775753,-0.246837824583054,-0.0235464069992304,-0.197951033711433
4.86480941332894,7.04052915653895,-5.33337366275758,-12.0087356775753,-0.246856972575188,-0.0235109478235245,-0.198082342743874
4.86480941332894,7.04052915653895,-5.33337366275758,-12.0087356775753,-0.246875017881393,-0.023475268855691,-0.198213115334511
4.86480941332894,7.04052915653895,-5.33337366275758,-12.0087356775753,-0.246891960501671,-0.023439371958375,-0.198343351483345
4.86480941332894,7.04052915653895,-5.33337366275758,-12.0087356775753,-0.246907815337181,-0.0234032571315765,-0.198473051190376
4.86480941332894,7.04052915653895,-5.33337366275758,-12.0087356775753,-0.246922582387924,-0.0233669243752956,-0.198602199554443
4.86480941332894,7.04052915653895,-5.33337366275758,-12.0087356775753,-0.2469362616539,-0.0233303736895323,-0.198730811476707
4.86480941332894,7.04052915653895,-5.33337366275758,-12.0087356775753,-0.246948853135109,-0.0232936050742865,-0.198858886957169
4.86480941332894,7.04052915653895,-5.33337366275758,-12.0087356775753,-0.246960356831551,-0.0232566185295582,-0.198986425995827
4.86480941332894,7.04052915653895,-5.33337366275758,-12.0087356775753,-0.246970772743225,-0.0232194140553474,-0.199113428592682
4.86480941332894,7.04052915653895,-5.33337366275758,-12.0087356775753,-0.246980100870132,-0.0231819935142994,-0.199239909648895
4.86480941332894,7.04052915653895,-5.33337366275758,-12.0087356775753,-0.246988341212273,-0.0231443550437689,-0.199365854263306
4.86480941332894,7.04052915653895,-5.33337366275758,-12.0087356775753,-0.246995508670807,-0.0231065005064011,-0.199491262435913
4.86480941332894,7.04052915653895,-5.33337366275758,-12.0087356775753,-0.247001588344574,-0.0230684280395508,-0.199616134166718
4.86480941332894,7.04052915653895,-5.33337366275758,-12.0087356775753,-0.247006595134735,-0.0230301395058632,-0.19974048435688
4.86480941332894,7.04052915653895,-5.33337366275758,-12.0087356775753,-0.247010514140129,-0.0229916349053383,-0.19986429810524
4.86480941332894,7.04052915653895,-5.33337366275758,-12.0087356775753,-0.247013360261917,-0.0229529142379761,-0.199987590312958
4.86480941332894,7.04052915653895,-5.33337366275758,-12.0087356775753,-0.247015133500099,-0.0229139793664217,-0.200110346078873
4.86480941332894,7.04052915653895,-5.33337366275758,-12.0087356775753,-0.247015833854675,-0.02287482842803,-0.200232580304146
4.86480941332894,7.04052915653895,-5.33337366275758,-12.0087356775753,-0.247015461325645,-0.022835461422801,-0.200354292988777
4.86480941332894,7.04052915653895,-5.33337366275758,-12.0087356775753,-0.24701401591301,-0.0227958802133799,-0.200475469231606
4.86480941332894,7.04052915653895,-5.33337366275758,-12.0087356775753,-0.247011512517929,-0.0227560829371214,-0.200596123933792
4.86480941332894,7.04052915653895,-5.33337366275758,-12.0087356775753,-0.247007936239243,-0.0227160714566708,-0.200716257095337
4.86480941332894,7.04052915653895,-5.33337366275758,-12.0087356775753,-0.24700328707695,-0.022675845772028,-0.20083586871624
4.86480941332894,7.04052915653895,-5.33337366275758,-12.0087356775753,-0.246997579932213,-0.022635405883193,-0.200954958796501
4.86480941332894,7.04052915653895,-5.33337366275758,-12.0087356775753,-0.246990814805031,-0.0225947517901659,-0.201073527336121
4.86480941332894,7.04052915653895,-5.33337366275758,-12.0087356775753,-0.246982976794243,-0.0225538834929466,-0.201191574335098
4.86480941332894,7.04052915653895,-5.33337366275758,-12.0087356775753,-0.24697408080101,-0.0225128028541803,-0.201309099793434
4.86480941332894,7.04052915653895,-5.33337366275758,-12.0087356775753,-0.246964126825333,-0.0224715080112219,-0.201426103711128
4.86480941332894,7.04052915653895,-5.33337366275758,-12.0087356775753,-0.24695311486721,-0.0224300008267164,-0.201542600989342
4.86480941332894,7.04052915653895,-5.33337366275758,-12.0087356775753,-0.246941044926643,-0.0223882794380188,-0.201658576726913
4.86480941332894,7.04052915653895,-5.33337366275758,-12.0087356775753,-0.246927931904793,-0.0223463457077742,-0.201774030923843
4.86480941332894,7.04052915653895,-5.33337366275758,-12.0087356775753,-0.246913760900497,-0.0223041996359825,-0.201888978481293
4.86480941332894,7.04052915653895,-5.33337366275758,-12.0087356775753,-0.246898531913757,-0.0222618412226439,-0.2020034044981
4.86480941332894,7.04052915653895,-5.33337366275758,-12.0087356775753,-0.246882259845734,-0.0222192704677582,-0.202117323875427
4.86480941332894,7.04052915653895,-5.33337366275758,-12.0087356775753,-0.246864944696426,-0.0221764873713255,-0.202230721712112
4.86480941332894,7.04052915653895,-5.33337366275758,-12.0087356775753,-0.246846571564674,-0.0221334937959909,-0.202343612909317
4.86480941332894,7.04052915653895,-5.33337366275758,-12.0087356775753,-0.246827155351639,-0.0220902878791094,-0.202455997467041
4.86480941332894,7.04052915653895,-5.33337366275758,-12.0087356775753,-0.24680669605732,-0.022046871483326,-0.202567860484123
4.86480941332894,7.04052915653895,-5.33337366275758,-12.0087356775753,-0.246785193681717,-0.0220032427459955,-0.202679216861725
4.86480941332894,7.04052915653895,-5.33337366275758,-12.0087356775753,-0.246762648224831,-0.0219594035297632,-0.202790066599846
4.86480941332894,7.04052915653895,-5.33337366275758,-12.0087356775753,-0.246739059686661,-0.0219153538346291,-0.202900409698486
4.86480941332894,7.04052915653895,-5.33337366275758,-12.0087356775753,-0.246714442968369,-0.021871093660593,-0.203010246157646
4.86480941332894,7.04052915653895,-5.33337366275758,-12.0087356775753,-0.246688783168793,-0.0218266230076551,-0.203119575977325
4.86480941332894,7.04052915653895,-5.33337366275758,-12.0087356775753,-0.246662095189095,-0.0217819418758154,-0.203228399157524
4.86480941332894,7.04052915653895,-5.33337366275758,-12.0087356775753,-0.246634364128113,-0.0217370502650738,-0.203336715698242
4.86480941332894,7.04052915653895,-5.33337366275758,-12.0087356775753,-0.246605604887009,-0.0216919500380754,-0.203444540500641
4.86480941332894,7.04052915653895,-5.33337366275758,-12.0087356775753,-0.246575817465782,-0.0216466393321753,-0.203551858663559
4.86480941332894,7.04052915653895,-5.33337366275758,-12.0087356775753,-0.246545001864433,-0.0216011200100183,-0.203658670186996
4.86480941332894,7.04052915653895,-5.33337366275758,-12.0087356775753,-0.246513143181801,-0.0215553920716047,-0.203764989972115
4.86480941332894,7.04052915653895,-5.33337366275758,-12.0087356775753,-0.246480271220207,-0.0215094555169344,-0.203870803117752
4.86480941332894,7.04052915653895,-5.33337366275758,-12.0087356775753,-0.246446371078491,-0.0214633103460073,-0.20397612452507
4.86480941332894,7.04052915653895,-5.33337366275758,-12.0087356775753,-0.246411442756653,-0.0214169565588236,-0.204080939292908
4.86480941332894,7.04052915653895,-5.33337366275758,-12.0087356775753,-0.246375486254692,-0.0213703941553831,-0.204185262322426
4.86480941332894,7.04052915653895,-5.33337366275758,-12.0087356775753,-0.24633851647377,-0.0213236231356859,-0.204289093613625
4.86480941332894,7.04052915653895,-5.33337366275758,-12.0087356775753,-0.246300518512726,-0.0212766453623772,-0.204392418265343
4.86480941332894,7.04052915653895,-5.33337366275758,-12.0087356775753,-0.24626150727272,-0.0212294589728117,-0.204495251178741
4.86480941332894,7.04052915653895,-5.33337366275758,-12.0087356775753,-0.246221482753754,-0.0211820658296347,-0.204597592353821
4.86480941332894,7.04052915653895,-5.33337366275758,-12.0087356775753,-0.246180444955826,-0.0211344659328461,-0.204699441790581
4.86480941332894,7.04052915653895,-5.33337366275758,-12.0087356775753,-0.246138378977776,-0.0210866592824459,-0.204800799489021
4.86480941332894,7.04052915653895,-5.33337366275758,-12.0087356775753,-0.246095314621925,-0.0210386458784342,-0.204901665449142
4.86480941332894,7.04052915653895,-5.33337366275758,-12.0087356775753,-0.246051236987114,-0.0209904257208109,-0.205002039670944
4.86480941332894,7.04052915653895,-5.33337366275758,-12.0087356775753,-0.246006146073341,-0.020941998809576,-0.205101922154427
4.86480941332894,7.04052915653895,-5.33337366275758,-12.0087356775753,-0.245960041880608,-0.0208933651447296,-0.20520131289959
4.86480941332894,7.04052915653895,-5.33337366275758,-12.0087356775753,-0.245912939310074,-0.0208445265889168,-0.205300211906433
4.86480941332894,7.04052915653895,-5.33337366275758,-12.0087356775753,-0.245864823460579,-0.0207954812794924,-0.205398634076118
4.86480941332894,7.04052915653895,-5.33337366275758,-12.0087356775753,-0.245815709233284,-0.0207462310791016,-0.205496564507484
4.86480941332894,7.04052915653895,-5.33337366275758,-12.0087356775753,-0.245765581727028,-0.0206967741250992,-0.205594018101692
4.86480941332894,7.04052915653895,-5.33337366275758,-12.0087356775753,-0.245714455842972,-0.0206471122801304,-0.205690979957581
4.86480941332894,7.04052915653895,-5.33337366275758,-12.0087356775753,-0.245662331581116,-0.0205972455441952,-0.205787464976311
4.86480941332894,7.04052915653895,-5.33337366275758,-12.0087356775753,-0.24560920894146,-0.0205471739172935,-0.205883458256721
4.86480941332894,7.04052915653895,-5.33337366275758,-12.0087356775753,-0.245555087924004,-0.0204968992620707,-0.205978974699974
4.86480941332894,7.04052915653895,-5.33337366275758,-12.0087356775753,-0.245499968528748,-0.0204464197158813,-0.206073999404907
4.86480941332894,7.04052915653895,-5.33337366275758,-12.0087356775753,-0.245443850755692,-0.0203957352787256,-0.206168547272682
4.86480941332894,7.04052915653895,-5.33337366275758,-12.0087356775753,-0.245386749505997,-0.0203448478132486,-0.206262618303299
4.86480941332894,7.04052915653895,-5.33337366275758,-12.0087356775753,-0.245328649878502,-0.0202937554568052,-0.206356212496758
4.86480941332894,7.04052915653895,-5.33337366275758,-12.0087356775753,-0.245269566774368,-0.0202424600720406,-0.206449329853058
4.86480941332894,7.04052915653895,-5.33337366275758,-12.0087356775753,-0.245209485292435,-0.0201909616589546,-0.2065419703722
4.86480941332894,7.04052915653895,-5.33337366275758,-12.0087356775753,-0.245148420333862,-0.0201392602175474,-0.206634134054184
4.86480941332894,7.04052915653895,-5.33337366275758,-12.0087356775753,-0.245086371898651,-0.0200873557478189,-0.20672582089901
4.86480941332894,7.04052915653895,-5.33337366275758,-12.0087356775753,-0.245023339986801,-0.0200352482497692,-0.206817030906677
4.86480941332894,7.04052915653895,-5.33337366275758,-12.0087356775753,-0.244959324598312,-0.0199829377233982,-0.206907764077187
4.86480941332894,7.04052915653895,-5.33337366275758,-12.0087356775753,-0.244894325733185,-0.0199304260313511,-0.206998035311699
4.86480941332894,7.04052915653895,-5.33337366275758,-12.0087356775753,-0.244828343391418,-0.0198777113109827,-0.207087829709053
4.86480941332894,7.04052915653895,-5.33337366275758,-12.0087356775753,-0.244761377573013,-0.0198247954249382,-0.207177147269249
4.86480941332894,7.04052915653895,-5.33337366275758,-12.0087356775753,-0.244693443179131,-0.0197716765105724,-0.207266002893448
4.86480941332894,7.04052915653895,-5.33337366275758,-12.0087356775753,-0.244624525308609,-0.0197183564305305,-0.207354381680489
4.86480941332894,7.04052915653895,-5.33337366275758,-12.0087356775753,-0.24455463886261,-0.0196648351848125,-0.207442298531532
4.86480941332894,7.04052915653895,-5.33337366275758,-12.0087356775753,-0.244483768939972,-0.0196111127734184,-0.207529738545418
4.86480941332894,7.04052915653895,-5.33337366275758,-12.0087356775753,-0.244411930441856,-0.0195571891963482,-0.207616716623306
4.86480941332894,7.04052915653895,-5.33337366275758,-12.0087356775753,-0.244339123368263,-0.019503066316247,-0.207703232765198
4.86480941332894,7.04052915653895,-5.33337366275758,-12.0087356775753,-0.244265347719193,-0.0194487422704697,-0.207789272069931
4.86480941332894,7.04052915653895,-5.33337366275758,-12.0087356775753,-0.244190603494644,-0.0193942170590162,-0.207874849438667
4.86480941332894,7.04052915653895,-5.33337366275758,-12.0087356775753,-0.244114890694618,-0.0193394925445318,-0.207959964871407
4.86480941332894,7.04052915653895,-5.33337366275758,-12.0087356775753,-0.244038209319115,-0.0192845687270164,-0.208044618368149
4.86480941332894,7.04052915653895,-5.33337366275758,-12.0087356775753,-0.243960574269295,-0.019229443743825,-0.208128809928894
4.86480941332894,7.04052915653895,-5.33337366275758,-12.0087356775753,-0.243881970643997,-0.0191741194576025,-0.208212539553642
4.86480941332894,7.04052915653895,-5.33337366275758,-12.0087356775753,-0.243802398443222,-0.0191185958683491,-0.208295807242393
4.86480941332894,7.04052915653895,-5.33337366275758,-12.0087356775753,-0.24372187256813,-0.0190628729760647,-0.208378612995148
4.86480941332894,7.04052915653895,-5.33337366275758,-12.0087356775753,-0.243640393018723,-0.0190069526433945,-0.208460956811905
4.86480941332894,7.04052915653895,-5.33337366275758,-12.0087356775753,-0.243557944893837,-0.0189508330076933,-0.208542853593826
4.86480941332894,7.04052915653895,-5.33337366275758,-12.0087356775753,-0.243474543094635,-0.0188945140689611,-0.208624288439751
4.86480941332894,7.04052915653895,-5.33337366275758,-12.0087356775753,-0.243390187621117,-0.0188379976898432,-0.208705261349678
4.86480941332894,7.04052915653895,-5.33337366275758,-12.0087356775753,-0.243304878473282,-0.0187812820076942,-0.20878578722477
4.86480941332894,7.04052915653895,-5.33337366275758,-12.0087356775753,-0.243218615651131,-0.0187243688851595,-0.208865851163864
4.86480941332894,7.04052915653895,-5.33337366275758,-12.0087356775753,-0.243131414055824,-0.0186672583222389,-0.208945468068123
4.86480941332894,7.04052915653895,-5.33337366275758,-12.0087356775753,-0.243043258786201,-0.0186099503189325,-0.209024623036385
4.86480941332894,7.04052915653895,-5.33337366275758,-12.0087356775753,-0.242954149842262,-0.0185524448752403,-0.20910333096981
4.86480941332894,7.04052915653895,-5.33337366275758,-12.0087356775753,-0.242864102125168,-0.0184947419911623,-0.209181576967239
4.86480941332894,7.04052915653895,-5.33337366275758,-12.0087356775753,-0.242773100733757,-0.0184368435293436,-0.209259375929832
4.86480941332894,7.04052915653895,-5.33337366275758,-12.0087356775753,-0.242681160569191,-0.0183787476271391,-0.20933672785759
4.86480941332894,7.04052915653895,-5.33337366275758,-12.0087356775753,-0.24258828163147,-0.0183204542845488,-0.209413632750511
4.86480941332894,7.04052915653895,-5.33337366275758,-12.0087356775753,-0.242494463920593,-0.0182619653642178,-0.209490090608597
4.86480941332894,7.04052915653895,-5.33337366275758,-12.0087356775753,-0.242399707436562,-0.0182032808661461,-0.209566101431847
4.86480941332894,7.04052915653895,-5.33337366275758,-12.0087356775753,-0.242304012179375,-0.0181444007903337,-0.209641665220261
4.86480941332894,7.04052915653895,-5.33337366275758,-12.0087356775753,-0.242207378149033,-0.0180853232741356,-0.209716781973839
4.86480941332894,7.04052915653895,-5.33337366275758,-12.0087356775753,-0.242109805345535,-0.0180260520428419,-0.209791451692581
4.86480941332894,7.04052915653895,-5.33337366275758,-12.0087356775753,-0.242011293768883,-0.0179665852338076,-0.209865674376488
4.86480941332894,7.04052915653895,-5.33337366275758,-12.0087356775753,-0.241911858320236,-0.0179069228470325,-0.209939450025558
4.86480941332894,7.04052915653895,-5.33337366275758,-12.0087356775753,-0.241811484098434,-0.0178470648825169,-0.210012793540955
4.86480941332894,7.04052915653895,-5.33337366275758,-12.0087356775753,-0.241710186004639,-0.0177870132029057,-0.210085690021515
4.86480941332894,7.04052915653895,-5.33337366275758,-12.0087356775753,-0.241607964038849,-0.0177267659455538,-0.210158139467239
4.86480941332894,7.04052915653895,-5.33337366275758,-12.0087356775753,-0.241504803299904,-0.0176663249731064,-0.210230156779289
4.86480941332894,7.04052915653895,-5.33337366275758,-12.0087356775753,-0.241400718688965,-0.0176056902855635,-0.210301727056503
4.86480941332894,7.04052915653895,-5.33337366275758,-12.0087356775753,-0.241295710206032,-0.017544861882925,-0.210372865200043
4.86480941332894,7.04052915653895,-5.33337366275758,-12.0087356775753,-0.241189777851105,-0.0174838397651911,-0.210443556308746
4.86480941332894,7.04052915653895,-5.33337366275758,-12.0087356775753,-0.241082921624184,-0.0174226239323616,-0.210513815283775
4.86480941332894,7.04052915653895,-5.33337366275758,-12.0087356775753,-0.24097515642643,-0.0173612143844366,-0.21058364212513
4.86480941332894,7.04052915653895,-5.33337366275758,-12.0087356775753,-0.240866467356682,-0.0172996111214161,-0.210653021931648
4.86480941332894,7.04052915653895,-5.33337366275758,-12.0087356775753,-0.24075685441494,-0.0172378141433001,-0.210721969604492
4.86480941332894,7.04052915653895,-5.33337366275758,-12.0087356775753,-0.240646332502365,-0.0171758253127337,-0.210790485143661
4.86480941332894,7.04052915653895,-5.33337366275758,-12.0087356775753,-0.240534886717796,-0.0171136446297169,-0.210858568549156
4.86480941332894,7.04052915653895,-5.33337366275758,-12.0087356775753,-0.240422531962395,-0.0170512702316046,-0.210926219820976
4.86480941332894,7.04052915653895,-5.33337366275758,-12.0087356775753,-0.24030926823616,-0.0169887039810419,-0.210993438959122
4.86480941332894,7.04052915653895,-5.33337366275758,-12.0087356775753,-0.240195095539093,-0.0169259458780289,-0.211060225963593
4.86480941332894,7.04052915653895,-5.33337366275758,-12.0087356775753,-0.240080013871193,-0.0168629959225655,-0.211126580834389
4.86480941332894,7.04052915653895,-5.33337366275758,-12.0087356775753,-0.23996402323246,-0.0167998541146517,-0.211192518472672
4.86480941332894,7.04052915653895,-5.33337366275758,-12.0087356775753,-0.239847123622894,-0.0167365204542875,-0.21125802397728
4.86480941332894,7.04052915653895,-5.33337366275758,-12.0087356775753,-0.239729315042496,-0.0166729968041182,-0.211323097348213
4.86480941332894,7.04052915653895,-5.33337366275758,-12.0087356775753,-0.239610597491264,-0.0166092813014984,-0.211387738585472
4.86480941332894,7.04052915653895,-5.33337366275758,-12.0087356775753,-0.239490985870361,-0.0165453758090734,-0.211451962590218
4.86480941332894,7.04052915653895,-5.33337366275758,-12.0087356775753,-0.239370465278625,-0.0164812803268433,-0.211515754461288
4.86480941332894,7.04052915653895,-5.33337366275758,-12.0087356775753,-0.239249050617218,-0.0164169929921627,-0.211579129099846
4.86480941332894,7.04052915653895,-5.33337366275758,-12.0087356775753,-0.239126741886139,-0.0163525156676769,-0.211642071604729
4.86480941332894,7.04052915653895,-5.33337366275758,-12.0087356775753,-0.239003524184227,-0.0162878483533859,-0.211704596877098
4.86480941332894,7.04052915653895,-5.33337366275758,-12.0087356775753,-0.238879412412643,-0.0162229910492897,-0.211766704916954
4.86480941332894,7.04052915653895,-5.33337366275758,-12.0087356775753,-0.238754406571388,-0.0161579437553883,-0.211828380823135
4.86480941332894,7.04052915653895,-5.33337366275758,-12.0087356775753,-0.238628506660461,-0.0160927083343267,-0.211889639496803
4.86480941332894,7.04052915653895,-5.33337366275758,-12.0087356775753,-0.238501712679863,-0.01602728292346,-0.211950480937958
4.86480941332894,7.04052915653895,-5.33337366275758,-12.0087356775753,-0.238374024629593,-0.0159616693854332,-0.212010905146599
4.86480941332894,7.04052915653895,-5.33337366275758,-12.0087356775753,-0.238245457410812,-0.0158958658576012,-0.212070912122726
4.86480941332894,7.04052915653895,-5.33337366275758,-12.0087356775753,-0.23811599612236,-0.0158298742026091,-0.212130501866341
4.86480941332894,7.04052915653895,-5.33337366275758,-12.0087356775753,-0.237985655665398,-0.0157636944204569,-0.212189674377441
4.86480941332894,7.04052915653895,-5.33337366275758,-12.0087356775753,-0.237854421138763,-0.0156973265111446,-0.212248429656029
4.86480941332894,7.04052915653895,-5.33337366275758,-12.0087356775753,-0.237722307443619,-0.0156307704746723,-0.212306767702103
4.86480941332894,7.04052915653895,-5.33337366275758,-12.0087356775753,-0.237589299678802,-0.0155640253797174,-0.212364688515663
4.86480941332894,7.04052915653895,-5.33337366275758,-12.0087356775753,-0.237455412745476,-0.0154970930889249,-0.21242219209671
4.86480941332894,7.04052915653895,-5.33337366275758,-12.0087356775753,-0.237320646643639,-0.0154299736022949,-0.212479293346405
4.86480941332894,7.04052915653895,-5.33337366275758,-12.0087356775753,-0.237185001373291,-0.0153626659885049,-0.212535977363586
4.86480941332894,7.04052915653895,-5.33337366275758,-12.0087356775753,-0.237048476934433,-0.0152951721101999,-0.212592244148254
4.86480941332894,7.04052915653895,-5.33337366275758,-12.0087356775753,-0.236911088228226,-0.0152274910360575,-0.21264810860157
4.86480941332894,7.04052915653895,-5.33337366275758,-12.0087356775753,-0.236772820353508,-0.0151596227660775,-0.212703555822372
4.86480941332894,7.04052915653895,-5.33337366275758,-12.0087356775753,-0.23663367331028,-0.0150915682315826,-0.212758600711823
4.86480941332894,7.04052915653895,-5.33337366275758,-12.0087356775753,-0.23649874329567,-0.0150102479383349,-0.212816148996353
4.86480941332894,7.04052915653895,-5.33337366275758,-12.0087356775753,-0.236373111605644,-0.0149025833234191,-0.212879091501236
4.86480941332894,7.04052915653895,-5.33337366275758,-12.0087356775753,-0.236256778240204,-0.0147685743868351,-0.212947443127632
4.86480941332894,7.04052915653895,-5.33337366275758,-12.0087356775753,-0.236154839396477,-0.0146263865754008,-0.213052451610565
4.86480941332894,7.04052915653895,-5.33337366275758,-12.0087356775753,-0.23607237637043,-0.0144941862672567,-0.213225349783897
4.86480941332894,7.04052915653895,-5.33337366275758,-12.0087356775753,-0.236009404063225,-0.0143719734624028,-0.21346615254879
4.86480941332894,7.04052915653895,-5.33337366275758,-12.0087356775753,-0.2359659075737,-0.0142597481608391,-0.213774859905243
4.86480941332894,7.04052915653895,-5.33337366275758,-12.0087356775753,-0.235941886901855,-0.0141575103625655,-0.214151456952095
4.86480941332894,7.04052915653895,-5.33337366275758,-12.0087356775753,-0.235910475254059,-0.0140427350997925,-0.214573428034782
4.86480941332894,7.04052915653895,-5.33337366275758,-12.0087356775753,-0.235844776034355,-0.0138928974047303,-0.215018257498741
4.86480941332894,7.04052915653895,-5.33337366275758,-12.0087356775753,-0.235744789242744,-0.013707997277379,-0.21548593044281
4.86480941332894,7.04052915653895,-5.33337366275758,-12.0087356775753,-0.235610514879227,-0.0134880356490612,-0.21597646176815
4.86480941332894,7.04052915653895,-5.33337366275758,-12.0087356775753,-0.235441967844963,-0.0132330115884542,-0.216489851474762
4.86480941332894,7.04052915653895,-5.33337366275758,-12.0087356775753,-0.235253676772118,-0.0129581857472658,-0.217017367482185
4.86480941332894,7.04052915653895,-5.33337366275758,-12.0087356775753,-0.235060170292854,-0.0126788159832358,-0.217550307512283
4.86480941332894,7.04052915653895,-5.33337366275758,-12.0087356775753,-0.234861448407173,-0.0123949032276869,-0.218088656663895
4.86480941332894,7.04052915653895,-5.33337366275758,-12.0087356775753,-0.234657511115074,-0.012106447480619,-0.218632429838181
4.86480941332894,7.04052915653895,-5.33337366275758,-12.0087356775753,-0.234448358416557,-0.0118134487420321,-0.21918161213398
4.86480941332894,7.04052915653895,-5.33337366275758,-12.0087356775753,-0.234243452548981,-0.0115602314472198,-0.219734042882919
4.86480941332894,7.04052915653895,-5.33337366275758,-12.0087356775753,-0.23405222594738,-0.0113911191001534,-0.220287531614304
4.86480941332894,7.04052915653895,-5.33337366275758,-12.0087356775753,-0.233874693512917,-0.0113061126321554,-0.220842078328133
4.86480941332894,7.04052915653895,-5.33337366275758,-12.0087356775753,-0.233705759048462,-0.0113182906061411,-0.221394777297974
4.86480941332894,7.04052915653895,-5.33337366275758,-12.0087356775753,-0.233540341258049,-0.0114407325163484,-0.221942722797394
4.86480941332894,7.04052915653895,-5.33337366275758,-12.0087356775753,-0.233388602733612,-0.0116342017427087,-0.222486644983292
4.86480941332894,7.04052915653895,-5.33337366275758,-12.0087356775753,-0.233255654573441,-0.0118412943556905,-0.222996026277542
4.86480941332894,7.04052915653895,-5.33337366275758,-12.0087356775753,-0.233136385679245,-0.0120438458397985,-0.223439633846283
4.86480941332894,7.04052915653895,-5.33337366275758,-12.0087356775753,-0.233030810952187,-0.0122418561950326,-0.223817452788353
4.86480941332894,7.04052915653895,-5.33337366275758,-12.0087356775753,-0.232938945293427,-0.0124353254213929,-0.224129483103752
4.86480941332894,7.04052915653895,-5.33337366275758,-12.0087356775753,-0.232854962348938,-0.0126068154349923,-0.224369928240776
4.86480941332894,7.04052915653895,-5.33337366275758,-12.0087356775753,-0.232799932360649,-0.0127614121884108,-0.224555477499962
4.86480941332894,7.04052915653895,-5.33337366275758,-12.0087356775753,-0.232800737023354,-0.0129216415807605,-0.224708676338196
4.86480941332894,7.04052915653895,-5.33337366275758,-12.0087356775753,-0.232857391238213,-0.0130875036120415,-0.224829524755478
4.86480941332894,7.04052915653895,-5.33337366275758,-12.0087356775753,-0.232969895005226,-0.0132589982822537,-0.224918007850647
4.86480941332894,7.04052915653895,-5.33337366275758,-12.0087356775753,-0.23315204679966,-0.0134688233956695,-0.224975600838661
4.86480941332894,7.04052915653895,-5.33337366275758,-12.0087356775753,-0.233403131365776,-0.0137344179674983,-0.225012466311455
4.86480941332894,7.04052915653895,-5.33337366275758,-12.0087356775753,-0.23370860517025,-0.0140405241400003,-0.225037321448326
4.86480941332894,7.04052915653895,-5.33337366275758,-12.0087356775753,-0.234068483114243,-0.014387140981853,-0.225050166249275
4.86480941332894,7.04052915653895,-5.33337366275758,-12.0087356775753,-0.234482750296593,-0.0147742694243789,-0.225051000714302
4.86480941332894,7.04052915653895,-5.33337366275758,-12.0087356775753,-0.234914362430573,-0.0151946432888508,-0.225058004260063
4.86480941332894,7.04052915653895,-5.33337366275758,-12.0087356775753,-0.235316812992096,-0.0155966728925705,-0.225091516971588
4.86480941332894,7.04052915653895,-5.33337366275758,-12.0087356775753,-0.235680654644966,-0.0159360338002443,-0.225153714418411
4.86480941332894,7.04052915653895,-5.33337366275758,-12.0087356775753,-0.236005902290344,-0.0162127278745174,-0.225244596600533
4.86480941332894,7.04052915653895,-5.33337366275758,-12.0087356775753,-0.236292541027069,-0.0164267532527447,-0.225364163517952
4.86480941332894,7.04052915653895,-5.33337366275758,-12.0087356775753,-0.236555114388466,-0.0165737513452768,-0.225445583462715
4.86480941332894,7.04052915653895,-5.33337366275758,-12.0087356775753,-0.236797988414764,-0.0166886001825333,-0.225421264767647
4.86480941332894,7.04052915653895,-5.33337366275758,-12.0087356775753,-0.237010970711708,-0.0168105382472277,-0.225290477275848
4.86480941332894,7.04052915653895,-5.33337366275758,-12.0087356775753,-0.237194076180458,-0.01693956553936,-0.225053235888481
4.86480941332894,7.04052915653895,-5.33337366275758,-12.0087356775753,-0.237347304821014,-0.0170756801962852,-0.224709540605545
4.86480941332894,7.04052915653895,-5.33337366275758,-12.0087356775753,-0.237464845180511,-0.0172261502593756,-0.224329143762589
4.86480941332894,7.04052915653895,-5.33337366275758,-12.0087356775753,-0.237546697258949,-0.0174156818538904,-0.223987609148026
4.86480941332894,7.04052915653895,-5.33337366275758,-12.0087356775753,-0.237598687410355,-0.0176617130637169,-0.223690748214722
4.86480941332894,7.04052915653895,-5.33337366275758,-12.0087356775753,-0.237620800733566,-0.017964243888855,-0.223438575863838
4.86480941332894,7.04052915653895,-5.33337366275758,-12.0087356775753,-0.237613037228584,-0.0183232743293047,-0.223231092095375
4.86480941332894,7.04052915653895,-5.33337366275758,-12.0087356775753,-0.237557247281075,-0.0187264513224363,-0.223022505640984
4.86480941332894,7.04052915653895,-5.33337366275758,-12.0087356775753,-0.237421452999115,-0.0191287267953157,-0.22276559472084
4.86480941332894,7.04052915653895,-5.33337366275758,-12.0087356775753,-0.23719185590744,-0.019497400149703,-0.22245891392231
4.86480941332894,7.04052915653895,-5.33337366275758,-12.0087356775753,-0.236868441104889,-0.0198324732482433,-0.222102448344231
4.86480941332894,7.04052915653895,-5.33337366275758,-12.0087356775753,-0.236451223492622,-0.0201339479535818,-0.221696212887764
4.86480941332894,7.04052915653895,-5.33337366275758,-12.0087356775753,-0.23598524928093,-0.020444693043828,-0.2212765365839
4.86480941332894,7.04052915653895,-5.33337366275758,-12.0087356775753,-0.235552623867989,-0.0208148453384638,-0.220861583948135
4.86480941332894,7.04052915653895,-5.33337366275758,-12.0087356775753,-0.23519042134285,-0.0212516710162163,-0.220433190464973
4.86480941332894,7.04052915653895,-5.33337366275758,-12.0087356775753,-0.234898626804352,-0.0217551719397306,-0.219991356134415
4.86480941332894,7.04052915653895,-5.33337366275758,-12.0087356775753,-0.234677255153656,-0.0223253462463617,-0.219536080956459
4.86480941332894,7.04052915653895,-5.33337366275758,-12.0087356775753,-0.234524115920067,-0.0229200515896082,-0.219039022922516
4.86480941332894,7.04052915653895,-5.33337366275758,-12.0087356775753,-0.234422504901886,-0.0235015042126179,-0.218538701534271
4.86480941332894,7.04052915653895,-5.33337366275758,-12.0087356775753,-0.234357893466949,-0.02407406270504,-0.218101963400841
4.86480941332894,7.04052915653895,-5.33337366275758,-12.0087356775753,-0.234330281615257,-0.0246377270668745,-0.217728808522224
4.86480941332894,7.04052915653895,-5.33337366275758,-12.0087356775753,-0.234339654445648,-0.0251924991607666,-0.217419236898422
4.86480941332894,7.04052915653895,-5.33337366275758,-12.0087356775753,-0.234396934509277,-0.0257696229964495,-0.217165991663933
4.86480941332894,7.04052915653895,-5.33337366275758,-12.0087356775753,-0.234518826007843,-0.0263930764049292,-0.216892033815384
4.86480941332894,7.04052915653895,-5.33337366275758,-12.0087356775753,-0.234711140394211,-0.0270555950701237,-0.216527625918388
4.86480941332894,7.04052915653895,-5.33337366275758,-12.0087356775753,-0.234973877668381,-0.0277571771293879,-0.216072767972946
4.86480941332894,7.04052915653895,-5.33337366275758,-12.0087356775753,-0.235307052731514,-0.0284978244453669,-0.215527445077896
4.86480941332894,7.04052915653895,-5.33337366275758,-12.0087356775753,-0.235682308673859,-0.0292782634496689,-0.214948356151581
4.86480941332894,7.04052915653895,-5.33337366275758,-12.0087356775753,-0.236089497804642,-0.0301115736365318,-0.214437931776047
4.86480941332894,7.04052915653895,-5.33337366275758,-12.0087356775753,-0.236546769738197,-0.0310101062059402,-0.214041963219643
4.86480941332894,7.04052915653895,-5.33337366275758,-12.0087356775753,-0.237054124474525,-0.0319738648831844,-0.213760450482368
4.86480941332894,7.04052915653895,-5.33337366275758,-12.0087356775753,-0.237611576914787,-0.0330028459429741,-0.213593393564224
4.86480941332894,7.04052915653895,-5.33337366275758,-12.0087356775753,-0.238202407956123,-0.0340512730181217,-0.213487029075623
4.86480941332894,7.04052915653895,-5.33337366275758,-12.0087356775753,-0.238764852285385,-0.0350304991006851,-0.213351249694824
4.86480941332894,7.04052915653895,-5.33337366275758,-12.0087356775753,-0.239253863692284,-0.0358976572751999,-0.213149726390839
4.86480941332894,7.04052915653895,-5.33337366275758,-12.0087356775753,-0.239669442176819,-0.0366527438163757,-0.212882459163666
4.86480941332894,7.04052915653895,-5.33337366275758,-12.0087356775753,-0.240011587738991,-0.0372957587242126,-0.212549448013306
4.86480941332894,7.04052915653895,-5.33337366275758,-12.0087356775753,-0.240291208028793,-0.0378666669130325,-0.212173953652382
4.86480941332894,7.04052915653895,-5.33337366275758,-12.0087356775753,-0.240521386265755,-0.0384475775063038,-0.211807563900948
4.86480941332894,7.04052915653895,-5.33337366275758,-12.0087356775753,-0.240704298019409,-0.0390806347131729,-0.211478605866432
4.86480941332894,7.04052915653895,-5.33337366275758,-12.0087356775753,-0.240839943289757,-0.0397658385336399,-0.211187094449997
4.86480941332894,7.04052915653895,-5.33337366275758,-12.0087356775753,-0.240928322076797,-0.0405031889677048,-0.210933014750481
4.86480941332894,7.04052915653895,-5.33337366275758,-12.0087356775753,-0.240963622927666,-0.041273795068264,-0.210716381669044
4.86480941332894,7.04052915653895,-5.33337366275758,-12.0087356775753,-0.240929126739502,-0.0420275181531906,-0.210544466972351
4.86480941332894,7.04052915653895,-5.33337366275758,-12.0087356775753,-0.240813955664635,-0.0427331142127514,-0.210424527525902
4.86480941332894,7.04052915653895,-5.33337366275758,-12.0087356775753,-0.240618094801903,-0.0433905869722366,-0.210356563329697
4.86480941332894,7.04052915653895,-5.33337366275758,-12.0087356775753,-0.240341544151306,-0.043999932706356,-0.210340574383736
4.86480941332894,7.04052915653895,-5.33337366275758,-12.0087356775753,-0.240004658699036,-0.0445618778467178,-0.21038818359375
4.86480941332894,7.04052915653895,-5.33337366275758,-12.0087356775753,-0.239656120538712,-0.0450764261186123,-0.210454344749451
4.86480941332894,7.04052915653895,-5.33337366275758,-12.0087356775753,-0.239324271678925,-0.0455428473651409,-0.210482388734818
4.86480941332894,7.04052915653895,-5.33337366275758,-12.0087356775753,-0.239009112119675,-0.045961145311594,-0.21047231554985
4.86480941332894,7.04052915653895,-5.33337366275758,-12.0087356775753,-0.238710641860962,-0.0463313162326813,-0.21042412519455
4.86480941332894,7.04052915653895,-5.33337366275758,-12.0087356775753,-0.238420143723488,-0.0466381050646305,-0.210327640175819
4.86480941332894,7.04052915653895,-5.33337366275758,-12.0087356775753,-0.238145604729652,-0.0469120256602764,-0.210226461291313
4.86480941332894,7.04052915653895,-5.33337366275758,-12.0087356775753,-0.237903743982315,-0.0471988581120968,-0.210174366831779
4.86480941332894,7.04052915653895,-5.33337366275758,-12.0087356775753,-0.237694576382637,-0.0474986024200916,-0.210171341896057
4.86480941332894,7.04052915653895,-5.33337366275758,-12.0087356775753,-0.237518087029457,-0.0478112585842609,-0.210217401385307
4.86480941332894,7.04052915653895,-5.33337366275758,-12.0087356775753,-0.237375006079674,-0.0481317415833473,-0.210289284586906
4.86480941332894,7.04052915653895,-5.33337366275758,-12.0087356775753,-0.237255156040192,-0.0484149977564812,-0.210340484976768
4.86480941332894,7.04052915653895,-5.33337366275758,-12.0087356775753,-0.237147644162178,-0.0486210659146309,-0.210347756743431
4.86480941332894,7.04052915653895,-5.33337366275758,-12.0087356775753,-0.237052485346794,-0.0487499460577965,-0.210311114788055
4.86480941332894,7.04052915653895,-5.33337366275758,-12.0087356775753,-0.236969664692879,-0.0488016381859779,-0.21023054420948
4.86480941332894,7.04052915653895,-5.33337366275758,-12.0087356775753,-0.236911535263062,-0.0487688779830933,-0.210106045007706
4.86480941332894,7.04052915653895,-5.33337366275758,-12.0087356775753,-0.236896276473999,-0.0486632883548737,-0.209937617182732
4.86480941332894,7.04052915653895,-5.33337366275758,-12.0087356775753,-0.236929684877396,-0.0485037639737129,-0.209725275635719
4.86480941332894,7.04052915653895,-5.33337366275758,-12.0087356775753,-0.237011775374413,-0.0482903048396111,-0.209469005465508
4.86480941332894,7.04052915653895,-5.33337366275758,-12.0087356775753,-0.23714254796505,-0.0480229072272778,-0.209168821573257
4.86480941332894,7.04052915653895,-5.33337366275758,-12.0087356775753,-0.237329259514809,-0.0477313660085201,-0.208824709057808
4.86480941332894,7.04052915653895,-5.33337366275758,-12.0087356775753,-0.237558841705322,-0.0474447458982468,-0.208425045013428
4.86480941332894,7.04052915653895,-5.33337366275758,-12.0087356775753,-0.237810954451561,-0.0471623204648495,-0.207958221435547
4.86480941332894,7.04052915653895,-5.33337366275758,-12.0087356775753,-0.238085582852364,-0.0468840897083282,-0.207424223423004
4.86480941332894,7.04052915653895,-5.33337366275758,-12.0087356775753,-0.238382741808891,-0.0466100573539734,-0.2068230509758
4.86480941332894,7.04052915653895,-5.33337366275758,-12.0087356775753,-0.238686442375183,-0.0463344044983387,-0.206199765205383
4.86480941332894,7.04052915653895,-5.33337366275758,-12.0087356775753,-0.238989427685738,-0.0460665822029114,-0.205609574913979
4.86480941332894,7.04052915653895,-5.33337366275758,-12.0087356775753,-0.239300400018692,-0.0458218455314636,-0.205062672495842
4.86480941332894,7.04052915653895,-5.33337366275758,-12.0087356775753,-0.239619374275208,-0.0456001982092857,-0.204559043049812
4.86480941332894,7.04052915653895,-5.33337366275758,-12.0087356775753,-0.239946350455284,-0.0454016402363777,-0.204098701477051
4.86480941332894,7.04052915653895,-5.33337366275758,-12.0087356775753,-0.240244269371033,-0.0452152714133263,-0.203677996993065
4.86480941332894,7.04052915653895,-5.33337366275758,-12.0087356775753,-0.240475356578827,-0.0450352765619755,-0.203316569328308
4.86480941332894,7.04052915653895,-5.33337366275758,-12.0087356775753,-0.240638881921768,-0.0448667444288731,-0.203037649393082
4.86480941332894,7.04052915653895,-5.33337366275758,-12.0087356775753,-0.240734845399857,-0.044709675014019,-0.202841252088547
4.86480941332894,7.04052915653895,-5.33337366275758,-12.0087356775753,-0.240763247013092,-0.0445640683174133,-0.202727377414703
4.86480941332894,7.04052915653895,-5.33337366275758,-12.0087356775753,-0.240742981433868,-0.0444502718746662,-0.202628448605537
4.86480941332894,7.04052915653895,-5.33337366275758,-12.0087356775753,-0.240680575370789,-0.0443958975374699,-0.202476888895035
4.86480941332894,7.04052915653895,-5.33337366275758,-12.0087356775753,-0.240563690662384,-0.0444082096219063,-0.202272698283195
4.86480941332894,7.04052915653895,-5.33337366275758,-12.0087356775753,-0.240392327308655,-0.0444872081279755,-0.20201587677002
4.86480941332894,7.04052915653895,-5.33337366275758,-12.0087356775753,-0.240166500210762,-0.0446328930556774,-0.201706439256668
4.86480941332894,7.04052915653895,-5.33337366275758,-12.0087356775753,-0.239898547530174,-0.0448176525533199,-0.2013850659132
4.86480941332894,7.04052915653895,-5.33337366275758,-12.0087356775753,-0.239593550562859,-0.0449840873479843,-0.201092436909676
4.86480941332894,7.04052915653895,-5.33337366275758,-12.0087356775753,-0.239244252443314,-0.0451024025678635,-0.200828567147255
4.86480941332894,7.04052915653895,-5.33337366275758,-12.0087356775753,-0.238850653171539,-0.0451725982129574,-0.200593456625938
4.86480941332894,7.04052915653895,-5.33337366275758,-12.0087356775753,-0.238412767648697,-0.0451946780085564,-0.200387105345726
4.86480941332894,7.04052915653895,-5.33337366275758,-12.0087356775753,-0.237913146615028,-0.0451788119971752,-0.200227677822113
4.86480941332894,7.04052915653895,-5.33337366275758,-12.0087356775753,-0.237350329756737,-0.0451409853994846,-0.200088292360306
4.86480941332894,7.04052915653895,-5.33337366275758,-12.0087356775753,-0.236740320920944,-0.0450870133936405,-0.199923887848854
4.86480941332894,7.04052915653895,-5.33337366275758,-12.0087356775753,-0.23608310520649,-0.0450168959796429,-0.199734479188919
4.86480941332894,7.04052915653895,-5.33337366275758,-12.0087356775753,-0.235378697514534,-0.0449306331574917,-0.199520066380501
4.86480941332894,7.04052915653895,-5.33337366275758,-12.0087356775753,-0.234695389866829,-0.0448151454329491,-0.19924721121788
4.86480941332894,7.04052915653895,-5.33337366275758,-12.0087356775753,-0.234138548374176,-0.0446682535111904,-0.198886141180992
4.86480941332894,7.04052915653895,-5.33337366275758,-12.0087356775753,-0.233745232224464,-0.044500857591629,-0.198440477252007
4.86480941332894,7.04052915653895,-5.33337366275758,-12.0087356775753,-0.233515441417694,-0.0443129539489746,-0.197910234332085
4.86480941332894,7.04052915653895,-5.33337366275758,-12.0087356775753,-0.233449175953865,-0.0441045463085175,-0.197295397520065
4.86480941332894,7.04052915653895,-5.33337366275758,-12.0087356775753,-0.233522459864616,-0.043896708637476,-0.19662794470787
4.86480941332894,7.04052915653895,-5.33337366275758,-12.0087356775753,-0.233692422509193,-0.043690163642168,-0.196007415652275
4.86480941332894,7.04052915653895,-5.33337366275758,-12.0087356775753,-0.233940184116364,-0.0434645675122738,-0.195501402020454
4.86480941332894,7.04052915653895,-5.33337366275758,-12.0087356775753,-0.234265729784966,-0.0432199202477932,-0.195109888911247
4.86480941332894,7.04052915653895,-5.33337366275758,-12.0087356775753,-0.234669074416161,-0.0429562218487263,-0.194832891225815
4.86480941332894,7.04052915653895,-5.33337366275758,-12.0087356775753,-0.235112413764,-0.042635690420866,-0.194664597511292
4.86480941332894,7.04052915653895,-5.33337366275758,-12.0087356775753,-0.235545635223389,-0.0422481521964073,-0.19455848634243
4.86480941332894,7.04052915653895,-5.33337366275758,-12.0087356775753,-0.235956370830536,-0.0418212190270424,-0.194473877549171
4.86480941332894,7.04052915653895,-5.33337366275758,-12.0087356775753,-0.236344635486603,-0.0413548909127712,-0.194410786032677
4.86480941332894,7.04052915653895,-5.33337366275758,-12.0087356775753,-0.236710429191589,-0.0408491678535938,-0.194369196891785
4.86480941332894,7.04052915653895,-5.33337366275758,-12.0087356775753,-0.237014502286911,-0.0403447411954403,-0.194375276565552
4.86480941332894,7.04052915653895,-5.33337366275758,-12.0087356775753,-0.237235069274902,-0.0398721285164356,-0.194437012076378
4.86480941332894,7.04052915653895,-5.33337366275758,-12.0087356775753,-0.23738956451416,-0.0394211560487747,-0.194536238908768
4.86480941332894,7.04052915653895,-5.33337366275758,-12.0087356775753,-0.237477988004684,-0.0389918237924576,-0.194672957062721
4.86480941332894,7.04052915653895,-5.33337366275758,-12.0087356775753,-0.237500354647636,-0.0385841354727745,-0.194847166538239
4.84532958319225,7.02927000624914,-5.16677420222253,-12.057860256492,-0.237461015582085,-0.0381930023431778,-0.195056691765785
4.82757363182871,7.03528392989792,-4.99085780503198,-12.091181551059,-0.237296029925346,-0.0378264188766479,-0.195332780480385
4.81194379761874,7.0501604778712,-4.8213106131257,-12.0939158436591,-0.236937090754509,-0.0374974645674229,-0.195708855986595
4.7970609775438,7.063499631829,-4.67097631319265,-12.0615677718819,-0.236384198069572,-0.0372061356902123,-0.196184918284416
4.78114383020497,7.06607702767848,-4.55038251727297,-11.9991888254462,-0.235637366771698,-0.0369524359703064,-0.196760967373848
4.76413489297646,7.05056743511059,-4.46658272543354,-11.9198479961016,-0.234737277030945,-0.0367356389760971,-0.197401404380798
4.74551700222635,7.01461954563108,-4.422366754865,-11.841758453201,-0.233748599886894,-0.0365339443087578,-0.198038637638092
4.72730134985664,6.9602681454369,-4.41741877720614,-11.7821137993654,-0.232695326209068,-0.0363262817263603,-0.198640719056129
4.71253345503324,6.89375324553205,-4.44763302376131,-11.7538903384595,-0.231577441096306,-0.0361126512289047,-0.199207633733749
4.70506331368289,6.82366616541477,-4.50769305045025,-11.7642713815513,-0.230394959449768,-0.035893052816391,-0.199739381670952
4.7095453984931,6.75968344388835,-4.58775554001543,-11.8117275785425,-0.229140609502792,-0.0356304310262203,-0.200252681970596
4.72879537812671,6.70922074620391,-4.67781926101874,-11.887824331921,-0.227844908833504,-0.0353255085647106,-0.200770065188408
4.76338787884143,6.67761373394456,-4.7647773364702,-11.9796316817643,-0.22654564678669,-0.0350160747766495,-0.201297342777252
4.81073708247753,6.66658067100997,-4.83652301252368,-12.0735708529568,-0.22524282336235,-0.0347021259367466,-0.201834514737129
4.8650967264578,6.67422242361631,-4.88005468830962,-12.1560167264405,-0.223936438560486,-0.034383662045002,-0.202381581068039
4.91807726741955,6.69579115730401,-4.88589751299189,-12.2169126667203,-0.222679540514946,-0.0341413393616676,-0.202923282980919
4.96111677412275,6.72604164543205,-4.84910350891164,-12.2518559992704,-0.221564412117004,-0.0340151228010654,-0.20341819524765
4.98565331532738,6.75945735653313,-4.76998850443007,-12.2595027497621,-0.220630288124084,-0.0339643210172653,-0.203840166330338
4.98617047895933,6.79129045614769,-4.65523753319266,-12.2411968925243,-0.219877168536186,-0.0339889340102673,-0.204189196228981
4.96157647512893,6.81842093877373,-4.51716790128636,-12.2012484141978,-0.21930505335331,-0.0340889617800713,-0.204465299844742
4.91508921087941,6.83971836763518,-4.3732028066376,-12.1429940786334,-0.218876153230667,-0.034215722233057,-0.204683721065521
4.85509822957348,6.85409752342698,-4.24334471212261,-12.0689364587194,-0.218548342585564,-0.0343256182968616,-0.204861894249916
4.79200426647587,6.86237232062793,-4.14433252088519,-11.981578127344,-0.218317255377769,-0.0344237349927425,-0.205002009868622
4.73764462249559,6.86354797487506,-4.09206292710595,-11.8829582179717,-0.218182891607285,-0.0345100723206997,-0.205104067921638
4.70259242077469,6.85803144340776,-4.09406317339357,-11.7749768322398,-0.218145251274109,-0.0345846340060234,-0.205168068408966
4.69104243299453,6.84464707197891,-4.15054381198887,-11.6631025553484,-0.218202158808708,-0.0346299782395363,-0.205151870846748
4.70477600055403,6.82285225093599,-4.25460925700554,-11.5536381634606,-0.218310743570328,-0.0346293933689594,-0.205048933625221
4.73908118813989,6.79400350441029,-4.39315263145364,-11.4552963177425,-0.218430310487747,-0.034583605825901,-0.204894870519638
4.78470651300283,6.75882431193852,-4.54854018516595,-11.3783190294589,-0.218560859560966,-0.0344926156103611,-0.204689666628838
4.8306766136204,6.72061554890684,-4.70166430228963,-11.3318823992,-0.218702405691147,-0.0343564227223396,-0.204433336853981
4.86555642746398,6.68407983230377,-4.83489123265746,-11.3220574834166,-0.218831688165665,-0.0341801159083843,-0.204141855239868
4.88072656066778,6.65342238693634,-4.93390342389488,-11.3513005110548,-0.218932718038559,-0.0340058393776417,-0.203814506530762
