EOG_left_h,EOG_right_h,EOG_left_v,EOG_right_v,head_horizontal,head_frontal,head_sagittal
-6.08497679004817,-14.7800777551102,-1.92479779472667,-8.50447544299529,0.0,0.0,0.0
-6.08497679004817,-14.7800777551102,-1.92479779472667,-8.50447544299529,-0.000232058941037394,0.000296575075481087,0.000145579513628036
-6.08497679004817,-14.7800777551102,-1.92479779472667,-8.50447544299529,-0.000463509699329734,0.000592125812545419,0.000291287928121164
-6.08497679004817,-14.7800777551102,-1.92479779472667,-8.50447544299529,-0.000694352725986391,0.000886652967892587,0.000437125214375556
-6.08497679004817,-14.7800777551102,-1.92479779472667,-8.50447544299529,-0.000924588530324399,0.00118015729822218,0.000583091343287379
-6.08497679004817,-14.7800777551102,-1.92479779472667,-8.50447544299529,-0.00115421751979738,0.00147263950202614,0.000729186285752803
-6.08497679004817,-14.7800777551102,-1.92479779472667,-8.50447544299529,-0.00138324010185897,0.00176410027779639,0.000875410041771829
-6.08497679004817,-14.7800777551102,-1.92479779472667,-8.50447544299529,-0.00161165685858577,0.00205454044044018,0.00102176261134446
-6.08497679004817,-14.7800777551102,-1.92479779472667,-8.50447544299529,-0.00183946813922375,0.00234396057203412,0.00116824393626302
-6.08497679004817,-14.7800777551102,-1.92479779472667,-8.50447544299529,-0.0020666744094342,0.00263236160390079,0.00131485401652753
-6.08497679004817,-14.7800777551102,-1.92479779472667,-8.50447544299529,-0.0022932761348784,0.00291974423453212,0.00146159273572266
-6.08497679004817,-14.7800777551102,-1.92479779472667,-8.50447544299529,-0.00251927389763296,0.00320610916242003,0.00160846021026373
-6.08497679004817,-14.7800777551102,-1.92479779472667,-8.50447544299529,-0.00274466816335917,0.00349145708605647,0.00175545632373542
-6.08497679004817,-14.7800777551102,-1.92479779472667,-8.50447544299529,-0.00296945916488767,0.00377578870393336,0.00190258107613772
-6.08497679004817,-14.7800777551102,-1.92479779472667,-8.50447544299529,-0.00319364760071039,0.00405910471454263,0.00204983446747065
-6.08497679004817,-14.7800777551102,-1.92479779472667,-8.50447544299529,-0.00341723370365798,0.0043414062820375,0.00219721649773419
-6.08497679004817,-14.7800777551102,-1.92479779472667,-8.50447544299529,-0.00364021793939173,0.00462269363924861,0.00234472705051303
-6.08497679004817,-14.7800777551102,-1.92479779472667,-8.50447544299529,-0.00386260100640357,0.00490296771749854,0.00249236612580717
-6.08497679004817,-14.7800777551102,-1.92479779472667,-8.50447544299529,-0.00408438313752413,0.00518222898244858,0.0026401337236166
-6.08497679004817,-14.7800777551102,-1.92479779472667,-8.50447544299529,-0.00430556479841471,0.0054604783654213,0.00278802984394133
-6.08497679004817,-14.7800777551102,-1.92479779472667,-8.50447544299529,-0.00452614668756723,0.00573771679773927,0.00293605448678136
-6.08497679004817,-14.7800777551102,-1.92479779472667,-8.50447544299529,-0.00474612880498171,0.00601394474506378,0.00308420741930604
-6.08497679004817,-14.7800777551102,-1.92479779472667,-8.50447544299529,-0.00496551208198071,0.00628916313871741,0.00323248887434602
-6.08497679004817,-14.7800777551102,-1.92479779472667,-8.50447544299529,-0.00518429698422551,0.00656337244436145,0.00338089861907065
-6.08497679004817,-14.7800777551102,-1.92479779472667,-8.50447544299529,-0.00540248351171613,0.00683657359331846,0.00352943688631058
-6.08497679004817,-14.7800777551102,-1.92479779472667,-8.50447544299529,-0.00562007259577513,0.00710876751691103,0.00367810344323516
-6.08497679004817,-14.7800777551102,-1.92479779472667,-8.50447544299529,-0.00583706423640251,0.00737995468080044,0.00382689828984439
-6.08497679004817,-14.7800777551102,-1.92479779472667,-8.50447544299529,-0.00605345936492085,0.00765013555064797,0.00397582165896893
-6.08497679004817,-14.7800777551102,-1.92479779472667,-8.50447544299529,-0.00626925798133016,0.0079193115234375,0.00412487331777811
-6.08497679004817,-14.7800777551102,-1.92479779472667,-8.50447544299529,-0.0064844605512917,0.0081874830648303,0.00427405303344131
-6.08497679004817,-14.7800777551102,-1.92479779472667,-8.50447544299529,-0.00669906800612807,0.00845465064048767,0.00442336080595851
-6.08497679004817,-14.7800777551102,-1.92479779472667,-8.50447544299529,-0.00691308034583926,0.00872081518173218,0.00457279710099101
-6.08497679004817,-14.7800777551102,-1.92479779472667,-8.50447544299529,-0.00712649803608656,0.00898597668856382,0.00472236145287752
-6.08497679004817,-14.7800777551102,-1.92479779472667,-8.50447544299529,-0.00733932200819254,0.00925013702362776,0.00487205386161804
-6.08497679004817,-14.7800777551102,-1.92479779472667,-8.50447544299529,-0.0075515522621572,0.00951329618692398,0.00502187479287386
-6.08497679004817,-14.7800777551102,-1.92479779472667,-8.50447544299529,-0.00776318926364183,0.00977545510977507,0.00517182378098369
-6.08497679004817,-14.7800777551102,-1.92479779472667,-8.50447544299529,-0.00797423347830772,0.0100366147235036,0.00532190082594752
-6.08497679004817,-14.7800777551102,-1.92479779472667,-8.50447544299529,-0.00818468537181616,0.0102967759594321,0.00547210592776537
-6.08497679004817,-14.7800777551102,-1.92479779472667,-8.50447544299529,-0.00839454587548971,0.0105559388175607,0.00562243908643723
-6.08497679004817,-14.7800777551102,-1.92479779472667,-8.50447544299529,-0.00860381498932838,0.0108141042292118,0.00577290030196309
-6.08497679004817,-14.7800777551102,-1.92479779472667,-8.50447544299529,-0.00881249364465475,0.0110712731257081,0.00592348957434297
-6.08497679004817,-14.7800777551102,-1.92479779472667,-8.50447544299529,-0.00902058184146881,0.0113274464383721,0.00607420643791556
-6.08497679004817,-14.7800777551102,-1.92479779472667,-8.50447544299529,-0.00922807957977057,0.0115826241672039,0.00622505135834217
-6.08497679004817,-14.7800777551102,-1.92479779472667,-8.50447544299529,-0.00943498779088259,0.011836807243526,0.00637602433562279
-6.08497679004817,-14.7800777551102,-1.92479779472667,-8.50447544299529,-0.00964130740612745,0.0120899965986609,0.00652712490409613
-6.08497679004817,-14.7800777551102,-1.92479779472667,-8.50447544299529,-0.00984703749418259,0.0123421931639314,0.00667835352942348
-6.08497679004817,-14.7800777551102,-1.92479779472667,-8.50447544299529,-0.0100521799176931,0.0125933978706598,0.00682971021160483
-6.08497679004817,-14.7800777551102,-1.92479779472667,-8.50447544299529,-0.0102567346766591,0.0128436107188463,0.00698119448497891
-6.08497679004817,-14.7800777551102,-1.92479779472667,-8.50447544299529,-0.0104607017710805,0.0130928326398134,0.007132806815207
-6.08497679004817,-14.7800777551102,-1.92479779472667,-8.50447544299529,-0.0106640821322799,0.0133410645648837,0.00728454673662782
-6.08497679004817,-14.7800777551102,-1.92479779472667,-8.50447544299529,-0.0108668766915798,0.0135883074253798,0.00743641424924135
-6.08497679004817,-14.7800777551102,-1.92479779472667,-8.50447544299529,-0.0110690845176578,0.0138345612213016,0.0075884098187089
-6.08497679004817,-14.7800777551102,-1.92479779472667,-8.50447544299529,-0.0112707074731588,0.0140798278152943,0.00774053297936916
-6.08497679004817,-14.7800777551102,-1.92479779472667,-8.50447544299529,-0.0114717455580831,0.0143241072073579,0.00789278373122215
-6.08497679004817,-14.7800777551102,-1.92479779472667,-8.50447544299529,-0.0116721987724304,0.0145673993974924,0.00804516207426786
-6.08497679004817,-14.7800777551102,-1.92479779472667,-8.50447544299529,-0.0118720680475235,0.014809706248343,0.0081976680085063
-6.08497679004817,-14.7800777551102,-1.92479779472667,-8.50447544299529,-0.0120713533833623,0.0150510277599096,0.00835030153393745
-6.08497679004817,-14.7800777551102,-1.92479779472667,-8.50447544299529,-0.0122700557112694,0.0152913648635149,0.00850306265056133
-6.08497679004817,-14.7800777551102,-1.92479779472667,-8.50447544299529,-0.0124681750312448,0.0155307184904814,0.00865595135837793
-6.08497679004817,-14.7800777551102,-1.92479779472667,-8.50447544299529,-0.012665712274611,0.0157690886408091,0.00880896765738726
-6.08497679004817,-14.7800777551102,-1.92479779472667,-8.50447544299529,-0.0128626674413681,0.0160064771771431,0.0089621115475893
-6.08497679004817,-14.7800777551102,-1.92479779472667,-8.50447544299529,-0.0130590405315161,0.0162428840994835,0.00911538302898407
-6.08497679004817,-14.7800777551102,-1.92479779472667,-8.50447544299529,-0.0132548334077001,0.0164783112704754,0.00926878117024899
-6.08497679004817,-14.7800777551102,-1.92479779472667,-8.50447544299529,-0.0134500451385975,0.0167127586901188,0.00942230690270662
-6.08497679004817,-14.7800777551102,-1.92479779472667,-8.50447544299529,-0.0136446766555309,0.0169462263584137,0.00957596022635698
-6.08497679004817,-14.7800777551102,-1.92479779472667,-8.50447544299529,-0.013838728889823,0.0171787142753601,0.00972974114120007
-6.08497679004817,-14.7800777551102,-1.92479779472667,-8.50447544299529,-0.0140322018414736,0.0174102243036032,0.00988364964723587
-6.08497679004817,-14.7800777551102,-1.92479779472667,-8.50447544299529,-0.0142250955104828,0.017640758305788,0.0100376848131418
-6.08497679004817,-14.7800777551102,-1.92479779472667,-8.50447544299529,-0.0144174108281732,0.0178703162819147,0.0101918475702405
-6.08497679004817,-14.7800777551102,-1.92479779472667,-8.50447544299529,-0.0146091487258673,0.0180988982319832,0.0103461379185319
-6.08497679004817,-14.7800777551102,-1.92479779472667,-8.50447544299529,-0.0148003092035651,0.0183265041559935,0.0105005549266934
-6.08497679004817,-14.7800777551102,-1.92479779472667,-8.50447544299529,-0.0149908922612667,0.0185531359165907,0.0106550995260477
-6.08497679004817,-14.7800777551102,-1.92479779472667,-8.50447544299529,-0.0151808988302946,0.0187787935137749,0.0108097707852721
-6.08497679004817,-14.7800777551102,-1.92479779472667,-8.50447544299529,-0.0153703298419714,0.0190034788101912,0.0109645696356893
-6.08497679004817,-14.7800777551102,-1.92479779472667,-8.50447544299529,-0.0155591852962971,0.0192271918058395,0.0111194951459765
-6.08497679004817,-14.7800777551102,-1.92479779472667,-8.50447544299529,-0.0157474651932716,0.0194499343633652,0.0112745482474566
-6.08497679004817,-14.7800777551102,-1.92479779472667,-8.50447544299529,-0.0159351695328951,0.0196717064827681,0.0114297280088067
-6.08497679004817,-14.7800777551102,-1.92479779472667,-8.50447544299529,-0.0161223001778126,0.0198925081640482,0.0115850353613496
-6.08497679004817,-14.7800777551102,-1.92479779472667,-8.50447544299529,-0.0163088571280241,0.0201123394072056,0.0117404693737626
-6.08497679004817,-14.7800777551102,-1.92479779472667,-8.50447544299529,-0.0164948403835297,0.0203312020748854,0.0118960309773684
-6.08497679004817,-14.7800777551102,-1.92479779472667,-8.50447544299529,-0.0166802499443293,0.0205490980297327,0.0120517192408442
-6.08497679004817,-14.7800777551102,-1.92479779472667,-8.50447544299529,-0.016865087673068,0.0207660254091024,0.0122075341641903
-6.08497679004817,-14.7800777551102,-1.92479779472667,-8.50447544299529,-0.017049353569746,0.0209819879382849,0.0123634757474065
-6.08497679004817,-14.7800777551102,-1.92479779472667,-8.50447544299529,-0.0172330476343632,0.0211969837546349,0.0125195449218154
-6.08497679004817,-14.7800777551102,-1.92479779472667,-8.50447544299529,-0.0174161698669195,0.0214110147207975,0.0126757407560945
-6.08497679004817,-14.7800777551102,-1.92479779472667,-8.50447544299529,-0.0175987221300602,0.0216240808367729,0.0128320632502437
-6.08497679004817,-14.7800777551102,-1.92479779472667,-8.50447544299529,-0.0177807044237852,0.0218361839652061,0.012988512404263
-6.08497679004817,-14.7800777551102,-1.92479779472667,-8.50447544299529,-0.0179621167480946,0.0220473241060972,0.0131450882181525
-6.08497679004817,-14.7800777551102,-1.92479779472667,-8.50447544299529,-0.0181429591029882,0.0222575012594461,0.0133017916232347
-6.08497679004817,-14.7800777551102,-1.92479779472667,-8.50447544299529,-0.0183232314884663,0.0224667172878981,0.0134586216881871
-6.08497679004817,-14.7800777551102,-1.92479779472667,-8.50447544299529,-0.0185029357671738,0.022674972191453,0.0136155784130096
-6.08497679004817,-14.7800777551102,-1.92479779472667,-8.50447544299529,-0.0186820719391108,0.022882267832756,0.0137726617977023
-6.08497679004817,-14.7800777551102,-1.92479779472667,-8.50447544299529,-0.0188606400042772,0.0230886042118073,0.0139298718422651
-6.08497679004817,-14.7800777551102,-1.92479779472667,-8.50447544299529,-0.0190386418253183,0.0232939813286066,0.0140872085466981
-6.08497679004817,-14.7800777551102,-1.92479779472667,-8.50447544299529,-0.0192160755395889,0.0234984010457993,0.0142446719110012
-6.08497679004817,-14.7800777551102,-1.92479779472667,-8.50447544299529,-0.0193929430097342,0.0237018633633852,0.0144022610038519
-6.08497679004817,-14.7800777551102,-1.92479779472667,-8.50447544299529,-0.019569244235754,0.0239043682813644,0.0145599767565727
-6.08497679004817,-14.7800777551102,-1.92479779472667,-8.50447544299529,-0.0197449810802937,0.0241059176623821,0.0147178191691637
-6.08497679004817,-14.7800777551102,-1.92479779472667,-8.50447544299529,-0.0199201516807079,0.0243065115064383,0.0148757882416248
-6.08497679004817,-14.7800777551102,-1.92479779472667,-8.50447544299529,-0.020094757899642,0.024506151676178,0.0150338839739561
-6.08497679004817,-14.7800777551102,-1.92479779472667,-8.50447544299529,-0.0202687997370958,0.0247048381716013,0.015192105434835
-6.08497679004817,-14.7800777551102,-1.92479779472667,-8.50447544299529,-0.0204422790557146,0.0249025709927082,0.015350453555584
-6.08497679004817,-14.7800777551102,-1.92479779472667,-8.50447544299529,-0.0206151939928532,0.0250993520021439,0.0155089283362031
-6.08497679004817,-14.7800777551102,-1.92479779472667,-8.50447544299529,-0.0207875464111567,0.0252951811999083,0.0156675297766924
-6.08497679004817,-14.7800777551102,-1.92479779472667,-8.50447544299529,-0.0209593363106251,0.0254900585860014,0.0158262569457293
-6.08497679004817,-14.7800777551102,-1.92479779472667,-8.50447544299529,-0.0211305636912584,0.0256839860230684,0.0159851107746363
-6.08497679004817,-14.7800777551102,-1.92479779472667,-8.50447544299529,-0.0213012304157019,0.0258769653737545,0.0161440912634134
-6.08497679004817,-14.7800777551102,-1.92479779472667,-8.50447544299529,-0.0214713346213102,0.0260689947754145,0.0163031965494156
-6.08497679004817,-14.7800777551102,-1.92479779472667,-8.50447544299529,-0.0216408781707287,0.0262600760906935,0.0164624284952879
-6.08497679004817,-14.7800777551102,-1.92479779472667,-8.50447544299529,-0.0218098629266024,0.0264502093195915,0.0166217871010304
-6.08497679004817,-14.7800777551102,-1.92479779472667,-8.50447544299529,-0.0219782870262861,0.0266393963247538,0.016781272366643
-6.08497679004817,-14.7800777551102,-1.92479779472667,-8.50447544299529,-0.0221461523324251,0.0268276371061802,0.0169408824294806
-6.08497679004817,-14.7800777551102,-1.92479779472667,-8.50447544299529,-0.0223134588450193,0.027014933526516,0.0171006191521883
-6.08497679004817,-14.7800777551102,-1.92479779472667,-8.50447544299529,-0.0224802065640688,0.0272012855857611,0.0172604825347662
-6.08497679004817,-14.7800777551102,-1.92479779472667,-8.50447544299529,-0.0226463954895735,0.0273866932839155,0.0174204707145691
-6.08497679004817,-14.7800777551102,-1.92479779472667,-8.50447544299529,-0.0228120274841785,0.0275711566209793,0.0175805855542421
-6.08497679004817,-14.7800777551102,-1.92479779472667,-8.50447544299529,-0.0229771006852388,0.0277546774595976,0.0177408270537853
-6.08497679004817,-14.7800777551102,-1.92479779472667,-8.50447544299529,-0.0231416188180447,0.0279372576624155,0.0179011933505535
-6.08497679004817,-14.7800777551102,-1.92479779472667,-8.50447544299529,-0.0233055800199509,0.0281188972294331,0.0180616863071918
-6.08497679004817,-14.7800777551102,-1.92479779472667,-8.50447544299529,-0.0234689842909575,0.0282995961606503,0.0182223059237003
-6.08497679004817,-14.7800777551102,-1.92479779472667,-8.50447544299529,-0.0236318334937096,0.0284793544560671,0.0183830503374338
-6.08497679004817,-14.7800777551102,-1.92479779472667,-8.50447544299529,-0.0237941276282072,0.0286581739783287,0.0185439214110374
-6.08497679004817,-14.7800777551102,-1.92479779472667,-8.50447544299529,-0.0239558666944504,0.0288360547274351,0.0187049172818661
-6.08497679004817,-14.7800777551102,-1.92479779472667,-8.50447544299529,-0.0241170525550842,0.0290129985660315,0.0188660398125649
-6.08497679004817,-14.7800777551102,-1.92479779472667,-8.50447544299529,-0.0242776833474636,0.0291890054941177,0.0190272871404886
-6.08497679004817,-14.7800777551102,-1.92479779472667,-8.50447544299529,-0.0244377609342337,0.029364075511694,0.0191886611282825
-6.08497679004817,-14.7800777551102,-1.92479779472667,-8.50447544299529,-0.0245972871780396,0.0295382104814053,0.0193501599133015
-6.08497679004817,-14.7800777551102,-1.92479779472667,-8.50447544299529,-0.0247562602162361,0.0297114104032516,0.0195117853581905
-6.08497679004817,-14.7800777551102,-1.92479779472667,-8.50447544299529,-0.0249146819114685,0.0298836752772331,0.0196735356003046
-6.08497679004817,-14.7800777551102,-1.92479779472667,-8.50447544299529,-0.0250725504010916,0.0300550069659948,0.0198354125022888
-6.08497679004817,-14.7800777551102,-1.92479779472667,-8.50447544299529,-0.0252298675477505,0.0302254073321819,0.019997414201498
-6.08497679004817,-14.7800777551102,-1.92479779472667,-8.50447544299529,-0.0253866352140903,0.0303948745131493,0.0201595406979322
-6.08497679004817,-14.7800777551102,-1.92479779472667,-8.50447544299529,-0.025542851537466,0.030563410371542,0.0203217938542366
-6.08497679004817,-14.7800777551102,-1.92479779472667,-8.50447544299529,-0.0256985183805227,0.0307310149073601,0.020484171807766
-6.08497679004817,-14.7800777551102,-1.92479779472667,-8.50447544299529,-0.0258536357432604,0.0308976899832487,0.0206466764211655
-6.08497679004817,-14.7800777551102,-1.92479779472667,-8.50447544299529,-0.026008203625679,0.0310634355992079,0.02080930583179
-6.08497679004817,-14.7800777551102,-1.92479779472667,-8.50447544299529,-0.0261622238904238,0.0312282536178827,0.0209720600396395
-6.08497679004817,-14.7800777551102,-1.92479779472667,-8.50447544299529,-0.0263156946748495,0.0313921421766281,0.0211349409073591
-6.08497679004817,-14.7800777551102,-1.92479779472667,-8.50447544299529,-0.0264686178416014,0.0315551050007343,0.0212979465723038
-6.08497679004817,-14.7800777551102,-1.92479779472667,-8.50447544299529,-0.0266209952533245,0.0317171402275562,0.0214610770344734
-6.08497679004817,-14.7800777551102,-1.92479779472667,-8.50447544299529,-0.0267728250473738,0.0318782515823841,0.0216243322938681
-6.08497679004817,-14.7800777551102,-1.92479779472667,-8.50447544299529,-0.0269241090863943,0.0320384353399277,0.0217877142131329
-6.08497679004817,-14.7800777551102,-1.92479779472667,-8.50447544299529,-0.027074845507741,0.0321976952254772,0.0219512209296227
-6.08497679004817,-14.7800777551102,-1.92479779472667,-8.50447544299529,-0.0272250380367041,0.0323560312390327,0.0221148524433374
-6.08497679004817,-14.7800777551102,-1.92479779472667,-8.50447544299529,-0.0273746848106384,0.0325134433805943,0.0222786087542772
-6.08497679004817,-14.7800777551102,-1.92479779472667,-8.50447544299529,-0.0275237858295441,0.032669935375452,0.0224424917250872
-6.08497679004817,-14.7800777551102,-1.92479779472667,-8.50447544299529,-0.0276723429560661,0.0328255034983158,0.0226064994931221
-6.08497679004817,-14.7800777551102,-1.92479779472667,-8.50447544299529,-0.0278203561902046,0.0329801514744759,0.022770632058382
-6.08497679004817,-14.7800777551102,-1.92479779472667,-8.50447544299529,-0.0279678255319595,0.0331338793039322,0.022934889420867
-6.08497679004817,-14.7800777551102,-1.92479779472667,-8.50447544299529,-0.028114752843976,0.0332866869866848,0.0230992715805769
-6.08497679004817,-14.7800777551102,-1.92479779472667,-8.50447544299529,-0.0282611362636089,0.0334385745227337,0.0232637785375118
-6.08497679004817,-14.7800777551102,-1.92479779472667,-8.50447544299529,-0.0284069776535034,0.0335895456373692,0.0234284102916718
-6.08497679004817,-14.7800777551102,-1.92479779472667,-8.50447544299529,-0.0285522788763046,0.0337396003305912,0.0235931668430567
-6.08497679004817,-14.7800777551102,-1.92479779472667,-8.50447544299529,-0.0286970380693674,0.0338887386023998,0.0237580481916666
-6.08497679004817,-14.7800777551102,-1.92479779472667,-8.50447544299529,-0.0288412570953369,0.034036960452795,0.0239230543375015
-6.08497679004817,-14.7800777551102,-1.92479779472667,-8.50447544299529,-0.028984934091568,0.0341842658817768,0.0240881852805614
-6.08497679004817,-14.7800777551102,-1.92479779472667,-8.50447544299529,-0.0291280709207058,0.0343306548893452,0.0242534410208464
-6.08497679004817,-14.7800777551102,-1.92479779472667,-8.50447544299529,-0.0292706694453955,0.0344761312007904,0.0244188215583563
-6.08497679004817,-14.7800777551102,-1.92479779472667,-8.50447544299529,-0.0294127278029919,0.0346206948161125,0.0245843268930912
-6.08497679004817,-14.7800777551102,-1.92479779472667,-8.50447544299529,-0.0295542478561401,0.0347643457353115,0.0247499570250511
-6.08497679004817,-14.7800777551102,-1.92479779472667,-8.50447544299529,-0.0296952296048403,0.0349070839583874,0.024915711954236
-6.08497679004817,-14.7800777551102,-1.92479779472667,-8.50447544299529,-0.0298356730490923,0.0350489094853401,0.0250815916806459
-6.08497679004817,-14.7800777551102,-1.92479779472667,-8.50447544299529,-0.0299755800515413,0.03518982604146,0.0252475962042809
-6.08497679004817,-14.7800777551102,-1.92479779472667,-8.50447544299529,-0.0301149487495422,0.0353298299014568,0.0254137255251408
-6.08497679004817,-14.7800777551102,-1.92479779472667,-8.50447544299529,-0.0302537810057402,0.0354689247906208,0.0255799796432257
-6.08497679004817,-14.7800777551102,-1.92479779472667,-8.50447544299529,-0.0303920768201351,0.035607110708952,0.0257463585585356
-6.08497679004817,-14.7800777551102,-1.92479779472667,-8.50447544299529,-0.0305298361927271,0.0357443913817406,0.0259128622710705
-6.08497679004817,-14.7800777551102,-1.92479779472667,-8.50447544299529,-0.0306670609861612,0.0358807630836964,0.0260794907808304
-6.08497679004817,-14.7800777551102,-1.92479779472667,-8.50447544299529,-0.0308037512004375,0.0360162295401096,0.0262462422251701
-6.08497679004817,-14.7800777551102,-1.92479779472667,-8.50447544299529,-0.030939906835556,0.0361507907509804,0.0264131184667349
-6.08497679004817,-14.7800777551102,-1.92479779472667,-8.50447544299529,-0.0310755278915167,0.0362844467163086,0.0265801195055246
-6.08497679004817,-14.7800777551102,-1.92479779472667,-8.50447544299529,-0.0312106162309647,0.0364171974360943,0.0267472453415394
-6.08497679004817,-14.7800777551102,-1.92479779472667,-8.50447544299529,-0.0313451699912548,0.0365490429103374,0.026914494112134
-6.08497679004817,-14.7800777551102,-1.92479779472667,-8.50447544299529,-0.0314791910350323,0.0366799868643284,0.0270818676799536
-6.08497679004817,-14.7800777551102,-1.92479779472667,-8.50447544299529,-0.0316126793622971,0.0368100255727768,0.0272493660449982
-6.08497679004817,-14.7800777551102,-1.92479779472667,-8.50447544299529,-0.0317456349730492,0.036939162760973,0.0274169892072678
-6.08497679004817,-14.7800777551102,-1.92479779472667,-8.50447544299529,-0.0318780615925789,0.0370673984289169,0.0275847353041172
-6.08497679004817,-14.7800777551102,-1.92479779472667,-8.50447544299529,-0.0320099554955959,0.037194736301899,0.0277526061981916
-6.08497679004817,-14.7800777551102,-1.92479779472667,-8.50447544299529,-0.0321413204073906,0.0373211726546288,0.0279206018894911
-6.08497679004817,-14.7800777551102,-1.92479779472667,-8.50447544299529,-0.0322721526026726,0.0374467112123966,0.0280887205153704
-6.08497679004817,-14.7800777551102,-1.92479779472667,-8.50447544299529,-0.0324024558067322,0.0375713519752026,0.0282569639384747
-6.08497679004817,-14.7800777551102,-1.92479779472667,-8.50447544299529,-0.0325322300195694,0.0376950949430466,0.0284253302961588
-6.08497679004817,-14.7800777551102,-1.92479779472667,-8.50447544299529,-0.0326614752411842,0.0378179401159287,0.0285938214510679
-6.08497679004817,-14.7800777551102,-1.92479779472667,-8.50447544299529,-0.0327901914715767,0.0379398874938488,0.0287624374032021
-6.08497679004817,-14.7800777551102,-1.92479779472667,-8.50447544299529,-0.0329183787107468,0.0380609408020973,0.028931176289916
-6.08497679004817,-14.7800777551102,-1.92479779472667,-8.50447544299529,-0.0330460369586945,0.0381810963153839,0.029100039973855
-6.08497679004817,-14.7800777551102,-1.92479779472667,-8.50447544299529,-0.0331731699407101,0.0383003577589989,0.0292690265923738
-6.08497679004817,-14.7800777551102,-1.92479779472667,-8.50447544299529,-0.0332997739315033,0.0384187251329422,0.0294381380081177
-6.08497679004817,-14.7800777551102,-1.92479779472667,-8.50447544299529,-0.0334258526563644,0.0385362021625042,0.0296073723584414
-6.08497679004817,-14.7800777551102,-1.92479779472667,-8.50447544299529,-0.0335514061152935,0.0386527851223946,0.02977673150599
-6.08497679004817,-14.7800777551102,-1.92479779472667,-8.50447544299529,-0.0336764343082905,0.0387684777379036,0.0299462135881186
-6.08497679004817,-14.7800777551102,-1.92479779472667,-8.50447544299529,-0.0338009372353554,0.0388832800090313,0.0301158186048269
-6.08497679004817,-14.7800777551102,-1.92479779472667,-8.50447544299529,-0.0339249148964882,0.0389971919357777,0.0302855484187603
-6.08497679004817,-14.7800777551102,-1.92479779472667,-8.50447544299529,-0.0340483672916889,0.0391102135181427,0.0304554011672735
-6.08497679004817,-14.7800777551102,-1.92479779472667,-8.50447544299529,-0.0341712944209576,0.0392223447561264,0.0306253787130117
-6.08497679004817,-14.7800777551102,-1.92479779472667,-8.50447544299529,-0.0342937000095844,0.0393335893750191,0.0307954791933298
-6.08497679004817,-14.7800777551102,-1.92479779472667,-8.50447544299529,-0.0344155803322792,0.0394439436495304,0.0309657026082277
-6.08497679004817,-14.7800777551102,-1.92479779472667,-8.50447544299529,-0.0345369391143322,0.0395534113049507,0.0311360508203506
-6.08497679004817,-14.7800777551102,-1.92479779472667,-8.50447544299529,-0.0346577763557434,0.03966199234128,0.0313065201044083
-6.08497679004817,-14.7800777551102,-1.92479779472667,-8.50447544299529,-0.0347780920565128,0.0397696904838085,0.031477116048336
-6.08497679004817,-14.7800777551102,-1.92479779472667,-8.50447544299529,-0.0348978862166405,0.039876502007246,0.0316478349268436
-6.08497679004817,-14.7800777551102,-1.92479779472667,-8.50447544299529,-0.0350171588361263,0.0399824306368828,0.0318186767399311
-6.08497679004817,-14.7800777551102,-1.92479779472667,-8.50447544299529,-0.0351359099149704,0.0400874726474285,0.0319896414875984
-6.08497679004817,-14.7800777551102,-1.92479779472667,-8.50447544299529,-0.0352541394531727,0.0401916317641735,0.0321607291698456
-6.08497679004817,-14.7800777551102,-1.92479779472667,-8.50447544299529,-0.0353718511760235,0.0402949117124081,0.0323319397866726
-6.08497679004817,-14.7800777551102,-1.92479779472667,-8.50447544299529,-0.0354890413582325,0.0403973087668419,0.0325032733380795
-6.08497679004817,-14.7800777551102,-1.92479779472667,-8.50447544299529,-0.03560571372509,0.040498822927475,0.0326747298240662
-6.08497679004817,-14.7800777551102,-1.92479779472667,-8.50447544299529,-0.0357218682765961,0.0405994579195976,0.0328463092446327
-6.08497679004817,-14.7800777551102,-1.92479779472667,-8.50447544299529,-0.0358375050127506,0.0406992137432098,0.0330180153250694
-6.08497679004817,-14.7800777551102,-1.92479779472667,-8.50447544299529,-0.0359526239335537,0.0407980903983116,0.033189844340086
-6.08497679004817,-14.7800777551102,-1.92479779472667,-8.50447544299529,-0.0360672250390053,0.040896087884903,0.0333617962896824
-6.08497679004817,-14.7800777551102,-1.92479779472667,-8.50447544299529,-0.0361813083291054,0.0409932099282742,0.0335338711738586
-6.08497679004817,-14.7800777551102,-1.92479779472667,-8.50447544299529,-0.036294873803854,0.0410894528031349,0.0337060689926147
-6.08497679004817,-14.7800777551102,-1.92479779472667,-8.50447544299529,-0.0364079251885414,0.0411848202347755,0.0338783897459507
-6.08497679004817,-14.7800777551102,-1.92479779472667,-8.50447544299529,-0.0365204587578774,0.041279312223196,0.0340508334338665
-6.08497679004817,-14.7800777551102,-1.92479779472667,-8.50447544299529,-0.0366324782371521,0.0413729287683964,0.0342234000563622
-6.08497679004817,-14.7800777551102,-1.92479779472667,-8.50447544299529,-0.0367439836263657,0.0414656735956669,0.0343960896134377
-6.08497679004817,-14.7800777551102,-1.92479779472667,-8.50447544299529,-0.036854974925518,0.0415575429797173,0.034568902105093
-6.08497679004817,-14.7800777551102,-1.92479779472667,-8.50447544299529,-0.0369654521346092,0.0416485406458378,0.0347418375313282
-6.08497679004817,-14.7800777551102,-1.92479779472667,-8.50447544299529,-0.0370754152536392,0.0417386665940285,0.0349148958921433
-6.08497679004817,-14.7800777551102,-1.92479779472667,-8.50447544299529,-0.037184864282608,0.0418279208242893,0.0350880771875381
-6.08497679004817,-14.7800777551102,-1.92479779472667,-8.50447544299529,-0.0372937992215157,0.0419163033366203,0.0352613814175129
-6.08497679004817,-14.7800777551102,-1.92479779472667,-8.50447544299529,-0.0374022237956524,0.0420038141310215,0.0354348085820675
-6.08497679004817,-14.7800777551102,-1.92479779472667,-8.50447544299529,-0.0375101342797279,0.0420904569327831,0.0356083549559116
-6.08497679004817,-14.7800777551102,-1.92479779472667,-8.50447544299529,-0.0376175343990326,0.0421762317419052,0.0357820242643356
-6.08497679004817,-14.7800777551102,-1.92479779472667,-8.50447544299529,-0.0377244241535664,0.0422611385583878,0.0359558165073395
-6.08497679004817,-14.7800777551102,-1.92479779472667,-8.50447544299529,-0.0378308035433292,0.0423451773822308,0.0361297316849232
-6.08497679004817,-14.7800777551102,-1.92479779472667,-8.50447544299529,-0.0379366725683212,0.0424283482134342,0.0363037697970867
-6.08497679004817,-14.7800777551102,-1.92479779472667,-8.50447544299529,-0.0380420312285423,0.0425106510519981,0.0364779308438301
-6.08497679004817,-14.7800777551102,-1.92479779472667,-8.50447544299529,-0.0381468795239925,0.0425920896232128,0.0366522148251534
-6.08497679004817,-14.7800777551102,-1.92479779472667,-8.50447544299529,-0.0382512174546719,0.0426726639270782,0.0368266217410564
-6.08497679004817,-14.7800777551102,-1.92479779472667,-8.50447544299529,-0.0383550487458706,0.0427523739635944,0.0370011515915394
-6.08497679004817,-14.7800777551102,-1.92479779472667,-8.50447544299529,-0.0384583696722984,0.0428312197327614,0.0371758006513119
-6.08497679004817,-14.7800777551102,-1.92479779472667,-8.50447544299529,-0.0385611839592457,0.0429092012345791,0.0373505726456642
-6.08497679004817,-14.7800777551102,-1.92479779472667,-8.50447544299529,-0.0386634916067123,0.0429863221943378,0.0375254675745964
-6.08497679004817,-14.7800777551102,-1.92479779472667,-8.50447544299529,-0.0387652888894081,0.0430625826120377,0.0377004854381084
-6.08497679004817,-14.7800777551102,-1.92479779472667,-8.50447544299529,-0.0388665795326233,0.0431379787623882,0.0378756262362003
-6.08497679004817,-14.7800777551102,-1.92479779472667,-8.50447544299529,-0.0389673635363579,0.0432125180959702,0.0380508899688721
-6.08497679004817,-14.7800777551102,-1.92479779472667,-8.50447544299529,-0.0390676446259022,0.0432861968874931,0.0382262729108334
-6.08497679004817,-14.7800777551102,-1.92479779472667,-8.50447544299529,-0.0391674190759659,0.0433590151369572,0.0384017787873745
-6.08497679004817,-14.7800777551102,-1.92479779472667,-8.50447544299529,-0.039266686886549,0.0434309765696526,0.0385774075984955
-6.08497679004817,-14.7800777551102,-1.92479779472667,-8.50447544299529,-0.0393654517829418,0.0435020811855793,0.0387531593441963
-6.08497679004817,-14.7800777551102,-1.92479779472667,-8.50447544299529,-0.0394637137651443,0.0435723289847374,0.038929034024477
-6.08497679004817,-14.7800777551102,-1.92479779472667,-8.50447544299529,-0.0395614691078663,0.0436417199671268,0.0391050279140472
-6.08497679004817,-14.7800777551102,-1.92479779472667,-8.50447544299529,-0.0396587215363979,0.0437102541327477,0.0392811447381973
-6.08497679004817,-14.7800777551102,-1.92479779472667,-8.50447544299529,-0.0397554710507393,0.0437779314815998,0.0394573844969273
-6.08497679004817,-14.7800777551102,-1.92479779472667,-8.50447544299529,-0.0398517176508904,0.0438447557389736,0.0396337434649467
-6.08497679004817,-14.7800777551102,-1.92479779472667,-8.50447544299529,-0.0399474613368511,0.0439107269048691,0.0398102253675461
-6.08497679004817,-14.7800777551102,-1.92479779472667,-8.50447544299529,-0.0400427058339119,0.0439758449792862,0.0399868302047253
-6.08497679004817,-14.7800777551102,-1.92479779472667,-8.50447544299529,-0.0401374474167824,0.044040109962225,0.0401635579764843
-6.08497679004817,-14.7800777551102,-1.92479779472667,-8.50447544299529,-0.0402316898107529,0.0441035218536854,0.0403404049575329
-6.08497679004817,-14.7800777551102,-1.92479779472667,-8.50447544299529,-0.0403254292905331,0.0441660843789577,0.0405173748731613
-6.08497679004817,-14.7800777551102,-1.92479779472667,-8.50447544299529,-0.0404186695814133,0.0442277975380421,0.0406944677233696
-6.08497679004817,-14.7800777551102,-1.92479779472667,-8.50447544299529,-0.0405114106833935,0.0442886613309383,0.0408716797828674
-6.08497679004817,-14.7800777551102,-1.92479779472667,-8.50447544299529,-0.0406036525964737,0.0443486757576466,0.0410490147769451
-6.08497679004817,-14.7800777551102,-1.92479779472667,-8.50447544299529,-0.0406953953206539,0.0444078408181667,0.0412264727056026
-6.08497679004817,-14.7800777551102,-1.92479779472667,-8.50447544299529,-0.0407866388559341,0.0444661565124989,0.0414040498435497
-6.08497679004817,-14.7800777551102,-1.92479779472667,-8.50447544299529,-0.0408773832023144,0.0445236265659332,0.0415817499160767
-6.08497679004817,-14.7800777551102,-1.92479779472667,-8.50447544299529,-0.0409676320850849,0.0445802509784698,0.0417595691978931
-6.08497679004817,-14.7800777551102,-1.92479779472667,-8.50447544299529,-0.0410573817789555,0.0446360297501087,0.0419375114142895
-6.08497679004817,-14.7800777551102,-1.92479779472667,-8.50447544299529,-0.0411466360092163,0.0446909628808498,0.0421155765652657
-6.08497679004817,-14.7800777551102,-1.92479779472667,-8.50447544299529,-0.0412353910505772,0.0447450503706932,0.0422937609255314
-6.08497679004817,-14.7800777551102,-1.92479779472667,-8.50447544299529,-0.0413236506283283,0.0447982922196388,0.042472068220377
-6.08497679004817,-14.7800777551102,-1.92479779472667,-8.50447544299529,-0.0414114147424698,0.044850692152977,0.0426504947245121
-6.08497679004817,-14.7800777551102,-1.92479779472667,-8.50447544299529,-0.0414986833930016,0.0449022501707077,0.0428290441632271
-6.08497679004817,-14.7800777551102,-1.92479779472667,-8.50447544299529,-0.0415854565799236,0.044952966272831,0.0430077165365219
-6.08497679004817,-14.7800777551102,-1.92479779472667,-8.50447544299529,-0.041671734303236,0.0450028404593468,0.0431865081191063
-6.08497679004817,-14.7800777551102,-1.92479779472667,-8.50447544299529,-0.041757520288229,0.0450518727302551,0.0433654226362705
-6.08497679004817,-14.7800777551102,-1.92479779472667,-8.50447544299529,-0.0418428108096123,0.0451000668108463,0.0435444563627243
-6.08497679004817,-14.7800777551102,-1.92479779472667,-8.50447544299529,-0.0419276095926762,0.0451474227011204,0.0437236130237579
-6.08497679004817,-14.7800777551102,-1.92479779472667,-8.50447544299529,-0.0420119129121304,0.045193936675787,0.0439028888940811
-6.08497679004817,-14.7800777551102,-1.92479779472667,-8.50447544299529,-0.0420957244932652,0.0452396124601364,0.0440822876989841
-6.08497679004817,-14.7800777551102,-1.92479779472667,-8.50447544299529,-0.0421790443360806,0.045284453779459,0.0442618057131767
-6.08497679004817,-14.7800777551102,-1.92479779472667,-8.50447544299529,-0.0422618724405766,0.0453284569084644,0.0444414466619492
-6.08497679004817,-14.7800777551102,-1.92479779472667,-8.50447544299529,-0.0423442088067532,0.045371625572443,0.0446212068200111
-6.08497679004817,-14.7800777551102,-1.92479779472667,-8.50447544299529,-0.0424260534346104,0.0454139560461044,0.044801089912653
-6.08497679004817,-14.7800777551102,-1.92479779472667,-8.50447544299529,-0.0425074100494385,0.045455452054739,0.0449810922145844
-6.08497679004817,-14.7800777551102,-1.92479779472667,-8.50447544299529,-0.0425882749259472,0.0454961135983467,0.0451612137258053
-6.08497679004817,-14.7800777551102,-1.92479779472667,-8.50447544299529,-0.0426686517894268,0.0455359444022179,0.0453414581716061
-6.08497679004817,-14.7800777551102,-1.92479779472667,-8.50447544299529,-0.042748536914587,0.0455749407410622,0.0455218218266964
-6.08497679004817,-14.7800777551102,-1.92479779472667,-8.50447544299529,-0.0428279340267181,0.0456131063401699,0.0457023084163666
-6.08497679004817,-14.7800777551102,-1.92479779472667,-8.50447544299529,-0.0429068431258202,0.0456504374742508,0.0458829142153263
-6.08497679004817,-14.7800777551102,-1.92479779472667,-8.50447544299529,-0.0429852642118931,0.0456869378685951,0.0460636392235756
-6.08497679004817,-14.7800777551102,-1.92479779472667,-8.50447544299529,-0.0430631972849369,0.0457226075232029,0.0462444871664047
-6.08497679004817,-14.7800777551102,-1.92479779472667,-8.50447544299529,-0.0431406423449516,0.0457574501633644,0.0464254543185234
-6.08497679004817,-14.7800777551102,-1.92479779472667,-8.50447544299529,-0.0432175993919373,0.0457914620637894,0.0466065444052219
-6.08497679004817,-14.7800777551102,-1.92479779472667,-8.50447544299529,-0.0432940721511841,0.0458246469497681,0.04678775370121
-6.08497679004817,-14.7800777551102,-1.92479779472667,-8.50447544299529,-0.0433700568974018,0.0458570048213005,0.0469690822064877
-6.08497679004817,-14.7800777551102,-1.92479779472667,-8.50447544299529,-0.0434455573558807,0.0458885356783867,0.0471505336463451
-6.08497679004817,-14.7800777551102,-1.92479779472667,-8.50447544299529,-0.0435205735266209,0.0459192395210266,0.0473321042954922
-6.08497679004817,-14.7800777551102,-1.92479779472667,-8.50447544299529,-0.0435951016843319,0.0459491163492203,0.0475137941539288
-6.08497679004817,-14.7800777551102,-1.92479779472667,-8.50447544299529,-0.0436691455543041,0.045978169888258,0.0476956069469452
-6.08497679004817,-14.7800777551102,-1.92479779472667,-8.50447544299529,-0.0437427051365376,0.0460063964128494,0.0478775389492512
-6.08497679004817,-14.7800777551102,-1.92479779472667,-8.50447544299529,-0.0438157804310322,0.0460337996482849,0.0480595901608467
-6.08497679004817,-14.7800777551102,-1.92479779472667,-8.50447544299529,-0.0438883751630783,0.0460603795945644,0.0482417605817318
-6.08497679004817,-14.7800777551102,-1.92479779472667,-8.50447544299529,-0.0439604856073856,0.046086136251688,0.0484240539371967
-6.08497679004817,-14.7800777551102,-1.92479779472667,-8.50447544299529,-0.0440321154892445,0.0461110733449459,0.0486064665019512
-6.08497679004817,-14.7800777551102,-1.92479779472667,-8.50447544299529,-0.0441032610833645,0.0461351871490479,0.0487889982759953
-6.08497679004817,-14.7800777551102,-1.92479779472667,-8.50447544299529,-0.044173926115036,0.0461584813892841,0.0489716492593288
-6.08497679004817,-14.7800777551102,-1.92479779472667,-8.50447544299529,-0.0442441068589687,0.0461809560656548,0.0491544231772423
-6.08497679004817,-14.7800777551102,-1.92479779472667,-8.50447544299529,-0.044313807040453,0.0462026111781597,0.0493373163044453
-6.08497679004817,-14.7800777551102,-1.92479779472667,-8.50447544299529,-0.0443830266594887,0.046223446726799,0.0495203286409378
-6.08497679004817,-14.7800777551102,-1.92479779472667,-8.50447544299529,-0.0444517657160759,0.0462434664368629,0.0497034601867199
-6.08497679004817,-14.7800777551102,-1.92479779472667,-8.50447544299529,-0.0445200279355049,0.0462626665830612,0.0498867109417915
-6.08497679004817,-14.7800777551102,-1.92479779472667,-8.50447544299529,-0.0445878095924854,0.0462810508906841,0.050070084631443
-6.08497679004817,-14.7800777551102,-1.92479779472667,-8.50447544299529,-0.0446551106870174,0.0462986193597317,0.0502535775303841
-6.08497679004817,-14.7800777551102,-1.92479779472667,-8.50447544299529,-0.0447219349443913,0.0463153719902039,0.0504371896386147
-6.08497679004817,-14.7800777551102,-1.92479779472667,-8.50447544299529,-0.0447882786393166,0.0463313087821007,0.0506209209561348
-6.08497679004817,-14.7800777551102,-1.92479779472667,-8.50447544299529,-0.0448541454970837,0.0463464334607124,0.0508047714829445
-6.08497679004817,-14.7800777551102,-1.92479779472667,-8.50447544299529,-0.0449195355176926,0.0463607423007488,0.0509887412190437
-6.08497679004817,-14.7800777551102,-1.92479779472667,-8.50447544299529,-0.0449844487011433,0.0463742390275002,0.0511728301644325
-6.08497679004817,-14.7800777551102,-1.92479779472667,-8.50447544299529,-0.0450488850474358,0.0463869236409664,0.0513570383191109
-6.08497679004817,-14.7800777551102,-1.92479779472667,-8.50447544299529,-0.0451128445565701,0.0463987961411476,0.0515413694083691
-6.08497679004817,-14.7800777551102,-1.92479779472667,-8.50447544299529,-0.0451763272285461,0.0464098565280437,0.0517258197069168
-6.08497679004817,-14.7800777551102,-1.92479779472667,-8.50447544299529,-0.0452393367886543,0.0464201085269451,0.0519103892147541
-6.08497679004817,-14.7800777551102,-1.92479779472667,-8.50447544299529,-0.0453018695116043,0.0464295521378517,0.052095077931881
-6.08497679004817,-14.7800777551102,-1.92479779472667,-8.50447544299529,-0.0453639291226864,0.0464381836354733,0.0522798858582973
-6.08497679004817,-14.7800777551102,-1.92479779472667,-8.50447544299529,-0.0454255118966103,0.0464460067451,0.0524648129940033
-6.08497679004817,-14.7800777551102,-1.92479779472667,-8.50447544299529,-0.0454866215586662,0.046453021466732,0.0526498593389988
-6.08497679004817,-14.7800777551102,-1.92479779472667,-8.50447544299529,-0.0455472581088543,0.0464592315256596,0.0528350248932838
-6.08497679004817,-14.7800777551102,-1.92479779472667,-8.50447544299529,-0.0456074215471745,0.0464646331965923,0.0530203096568584
-6.08497679004817,-14.7800777551102,-1.92479779472667,-8.50447544299529,-0.0456671118736267,0.0464692302048206,0.0532057136297226
-6.08497679004817,-14.7800777551102,-1.92479779472667,-8.50447544299529,-0.0457263290882111,0.0464730225503445,0.0533912368118763
-6.08497679004817,-14.7800777551102,-1.92479779472667,-8.50447544299529,-0.0457850769162178,0.0464760102331638,0.0535768792033196
-6.08497679004817,-14.7800777551102,-1.92479779472667,-8.50447544299529,-0.0458433516323566,0.0464781932532787,0.0537626408040524
-6.08497679004817,-14.7800777551102,-1.92479779472667,-8.50447544299529,-0.0459011569619179,0.0464795716106892,0.0539485216140747
-6.08497679004817,-14.7800777551102,-1.92479779472667,-8.50447544299529,-0.0459584891796112,0.0464801490306854,0.0541345216333866
-6.08497679004817,-14.7800777551102,-1.92479779472667,-8.50447544299529,-0.0460153520107269,0.0464799217879772,0.0543206408619881
-6.08497679004817,-14.7800777551102,-1.92479779472667,-8.50447544299529,-0.046071745455265,0.0464788936078548,0.0545068792998791
-6.08497679004817,-14.7800777551102,-1.92479779472667,-8.50447544299529,-0.0461276695132256,0.0464770644903183,0.0546932369470596
-6.08497679004817,-14.7800777551102,-1.92479779472667,-8.50447544299529,-0.0461831241846085,0.0464744344353676,0.0548797138035297
-6.08497679004817,-14.7800777551102,-1.92479779472667,-8.50447544299529,-0.0462381094694138,0.046471007168293,0.0550663098692894
-6.08497679004817,-14.7800777551102,-1.92479779472667,-8.50447544299529,-0.0462926253676414,0.0464667789638042,0.0552530214190483
-6.08497679004817,-14.7800777551102,-1.92479779472667,-8.50447544299529,-0.0463466718792915,0.0464617535471916,0.0554398521780968
-6.08497679004817,-14.7800777551102,-1.92479779472667,-8.50447544299529,-0.0464002527296543,0.0464559309184551,0.0556268021464348
-6.08497679004817,-14.7800777551102,-1.92479779472667,-8.50447544299529,-0.0464533641934395,0.0464493110775948,0.0558138713240623
-6.08497679004817,-14.7800777551102,-1.92479779472667,-8.50447544299529,-0.0465060099959373,0.0464418940246105,0.0560010597109795
-6.08497679004817,-14.7800777551102,-1.92479779472667,-8.50447544299529,-0.0465581901371479,0.0464336797595024,0.0561883673071861
-6.08497679004817,-14.7800777551102,-1.92479779472667,-8.50447544299529,-0.0466099046170712,0.0464246720075607,0.0563757941126823
-6.08497679004817,-14.7800777551102,-1.92479779472667,-8.50447544299529,-0.0466611534357071,0.0464148707687855,0.0565633364021778
-6.08497679004817,-14.7800777551102,-1.92479779472667,-8.50447544299529,-0.0467119365930557,0.0464042760431767,0.0567509979009628
-6.08497679004817,-14.7800777551102,-1.92479779472667,-8.50447544299529,-0.0467622540891171,0.0463928878307343,0.0569387786090374
-6.08497679004817,-14.7800777551102,-1.92479779472667,-8.50447544299529,-0.0468121059238911,0.0463807061314583,0.0571266785264015
-6.08497679004817,-14.7800777551102,-1.92479779472667,-8.50447544299529,-0.0468614958226681,0.0463677309453487,0.0573146976530552
-6.08497679004817,-14.7800777551102,-1.92479779472667,-8.50447544299529,-0.0469104200601578,0.0463539659976959,0.0575028322637081
-6.08497679004817,-14.7800777551102,-1.92479779472667,-8.50447544299529,-0.0469588823616505,0.0463394075632095,0.0576910860836506
-6.08497679004817,-14.7800777551102,-1.92479779472667,-8.50447544299529,-0.0470068790018559,0.0463240593671799,0.0578794591128826
-6.08497679004817,-14.7800777551102,-1.92479779472667,-8.50447544299529,-0.0470544137060642,0.0463079214096069,0.0580679513514042
-6.08497679004817,-14.7800777551102,-1.92479779472667,-8.50447544299529,-0.0471014864742756,0.046290997415781,0.058256559073925
-6.08497679004817,-14.7800777551102,-1.92479779472667,-8.50447544299529,-0.0471480973064899,0.0462732836604118,0.0584452860057354
-6.08497679004817,-14.7800777551102,-1.92479779472667,-8.50447544299529,-0.0471942462027073,0.0462547801434994,0.0586341321468353
-6.08497679004817,-14.7800777551102,-1.92479779472667,-8.50447544299529,-0.0472399331629276,0.0462354905903339,0.0588230937719345
-6.08497679004817,-14.7800777551102,-1.92479779472667,-8.50447544299529,-0.0472851619124413,0.0462154150009155,0.0590121746063232
-6.08497679004817,-14.7800777551102,-1.92479779472667,-8.50447544299529,-0.0473299287259579,0.0461945533752441,0.0592013746500015
-6.08497679004817,-14.7800777551102,-1.92479779472667,-8.50447544299529,-0.0473742373287678,0.0461729057133198,0.0593906939029694
-6.08497679004817,-14.7800777551102,-1.92479779472667,-8.50447544299529,-0.0474180839955807,0.0461504757404327,0.0595801286399364
-6.08497679004817,-14.7800777551102,-1.92479779472667,-8.50447544299529,-0.0474614724516869,0.0461272597312927,0.0597696825861931
-6.08497679004817,-14.7800777551102,-1.92479779472667,-8.50447544299529,-0.0475044026970863,0.04610326141119,0.059959352016449
-6.08497679004817,-14.7800777551102,-1.92479779472667,-8.50447544299529,-0.0475468747317791,0.0460784807801247,0.0601491406559944
-6.08497679004817,-14.7800777551102,-1.92479779472667,-8.50447544299529,-0.0475888885557652,0.0460529178380966,0.0603390485048294
-6.08497679004817,-14.7800777551102,-1.92479779472667,-8.50447544299529,-0.0476304441690445,0.0460265725851059,0.0605290718376637
-6.08497679004817,-14.7800777551102,-1.92479779472667,-8.50447544299529,-0.0476715415716171,0.0459994487464428,0.0607192143797874
-6.08497679004817,-14.7800777551102,-1.92479779472667,-8.50447544299529,-0.047712180763483,0.045971542596817,0.0609094761312008
-6.08497679004817,-14.7800777551102,-1.92479779472667,-8.50447544299529,-0.0477523654699326,0.0459428578615189,0.0610998533666134
-6.08497679004817,-14.7800777551102,-1.92479779472667,-8.50447544299529,-0.0477920919656754,0.0459133945405483,0.0612903498113155
-6.08497679004817,-14.7800777551102,-1.92479779472667,-8.50447544299529,-0.0478313639760017,0.0458831526339054,0.0614809617400169
-6.08497679004817,-14.7800777551102,-1.92479779472667,-8.50447544299529,-0.0478701815009117,0.0458521321415901,0.0616716928780079
-6.08497679004817,-14.7800777551102,-1.92479779472667,-8.50447544299529,-0.0479085445404053,0.0458203367888927,0.0618625394999981
-6.08497679004817,-14.7800777551102,-1.92479779472667,-8.50447544299529,-0.0479464530944824,0.045787762850523,0.0620535053312778
-6.08497679004817,-14.7800777551102,-1.92479779472667,-8.50447544299529,-0.0479839071631432,0.0457544140517712,0.0622445866465569
-6.08497679004817,-14.7800777551102,-1.92479779472667,-8.50447544299529,-0.0480209067463875,0.0457202903926373,0.0624357871711254
-6.08497679004817,-14.7800777551102,-1.92479779472667,-8.50447544299529,-0.0480574518442154,0.0456853918731213,0.0626271069049835
-6.08497679004817,-14.7800777551102,-1.92479779472667,-8.50447544299529,-0.0480935424566269,0.0456497184932232,0.0628185421228409
-6.08497679004817,-14.7800777551102,-1.92479779472667,-8.50447544299529,-0.0481291823089123,0.045613270252943,0.0630100965499878
-6.08497679004817,-14.7800777551102,-1.92479779472667,-8.50447544299529,-0.0481643676757813,0.0455760508775711,0.0632017627358437
-6.08497679004817,-14.7800777551102,-1.92479779472667,-8.50447544299529,-0.0481991022825241,0.0455380603671074,0.0633935481309891
-6.08497679004817,-14.7800777551102,-1.92479779472667,-8.50447544299529,-0.0482333861291409,0.0454992987215519,0.063585452735424
-6.08497679004817,-14.7800777551102,-1.92479779472667,-8.50447544299529,-0.0482672192156315,0.0454597659409046,0.0637774765491486
-6.08497679004817,-14.7800777551102,-1.92479779472667,-8.50447544299529,-0.048300601541996,0.0454194620251656,0.063969612121582
-6.08497679004817,-14.7800777551102,-1.92479779472667,-8.50447544299529,-0.0483335331082344,0.0453783869743347,0.0641618669033051
-6.08497679004817,-14.7800777551102,-1.92479779472667,-8.50447544299529,-0.0483660139143467,0.0453365445137024,0.0643542408943176
-6.08497679004817,-14.7800777551102,-1.92479779472667,-8.50447544299529,-0.0483980439603329,0.0452939346432686,0.0645467266440392
-6.08497679004817,-14.7800777551102,-1.92479779472667,-8.50447544299529,-0.0484296269714832,0.045250553637743,0.0647393316030502
-6.08497679004817,-14.7800777551102,-1.92479779472667,-8.50447544299529,-0.0484607592225075,0.0452064052224159,0.0649320557713509
-6.08497679004817,-14.7800777551102,-1.92479779472667,-8.50447544299529,-0.0484914444386959,0.0451614931225777,0.0651248916983604
-6.08497679004817,-14.7800777551102,-1.92479779472667,-8.50447544299529,-0.0485216788947582,0.0451158136129379,0.0653178468346596
-6.08497679004817,-14.7800777551102,-1.92479779472667,-8.50447544299529,-0.0485514663159847,0.045069370418787,0.0655109211802483
-6.08497679004817,-14.7800777551102,-1.92479779472667,-8.50447544299529,-0.0485808067023754,0.0450221598148346,0.0657041072845459
-6.08497679004817,-14.7800777551102,-1.92479779472667,-8.50447544299529,-0.0486097000539303,0.044974185526371,0.0658974125981331
-6.08497679004817,-14.7800777551102,-1.92479779472667,-8.50447544299529,-0.0486381463706493,0.0449254475533962,0.0660908371210098
-6.08497679004817,-14.7800777551102,-1.92479779472667,-8.50447544299529,-0.0486661456525326,0.0448759458959103,0.0662843734025955
-6.08497679004817,-14.7800777551102,-1.92479779472667,-8.50447544299529,-0.0486937016248703,0.0448256842792034,0.0664780288934708
-6.08497679004817,-14.7800777551102,-1.92479779472667,-8.50447544299529,-0.0487208105623722,0.0447746589779854,0.0666718035936356
-6.08497679004817,-14.7800777551102,-1.92479779472667,-8.50447544299529,-0.0487474724650383,0.0447228737175465,0.0668656900525093
-6.08497679004817,-14.7800777551102,-1.92479779472667,-8.50447544299529,-0.0487736910581589,0.0446703284978867,0.0670596957206726
-6.08497679004817,-14.7800777551102,-1.92479779472667,-8.50447544299529,-0.0487994663417339,0.044617023319006,0.0672538131475449
-6.08497679004817,-14.7800777551102,-1.92479779472667,-8.50447544299529,-0.0488247983157635,0.0445629581809044,0.0674480497837067
-6.08497679004817,-14.7800777551102,-1.92479779472667,-8.50447544299529,-0.0488496832549572,0.0445081330835819,0.067642405629158
-6.08497679004817,-14.7800777551102,-1.92479779472667,-8.50447544299529,-0.0488741248846054,0.0444525517523289,0.0678368732333183
-6.08497679004817,-14.7800777551102,-1.92479779472667,-8.50447544299529,-0.0488981269299984,0.0443962141871452,0.0680314600467682
-6.08497679004817,-14.7800777551102,-1.92479779472667,-8.50447544299529,-0.0489216856658459,0.0443391166627407,0.068226158618927
-6.08497679004817,-14.7800777551102,-1.92479779472667,-8.50447544299529,-0.0489448010921478,0.0442812629044056,0.0684209764003754
-6.08497679004817,-14.7800777551102,-1.92479779472667,-8.50447544299529,-0.0489674732089043,0.0442226566374302,0.0686159133911133
-6.08497679004817,-14.7800777551102,-1.92479779472667,-8.50447544299529,-0.0489897057414055,0.0441632941365242,0.0688109621405602
-6.08497679004817,-14.7800777551102,-1.92479779472667,-8.50447544299529,-0.0490114986896515,0.0441031754016876,0.0690061300992966
-6.08497679004817,-14.7800777551102,-1.92479779472667,-8.50447544299529,-0.049032848328352,0.0440423041582108,0.0692014098167419
-6.08497679004817,-14.7800777551102,-1.92479779472667,-8.50447544299529,-0.0490537583827972,0.0439806804060936,0.0693968087434769
-6.08497679004817,-14.7800777551102,-1.92479779472667,-8.50447544299529,-0.0490742288529873,0.0439183041453362,0.0695923194289207
-6.08497679004817,-14.7800777551102,-1.92479779472667,-8.50447544299529,-0.0490942597389221,0.0438551753759384,0.0697879493236542
-6.08497679004817,-14.7800777551102,-1.92479779472667,-8.50447544299529,-0.0491138510406017,0.0437912940979004,0.0699836984276772
-6.08497679004817,-14.7800777551102,-1.92479779472667,-8.50447544299529,-0.0491330027580261,0.0437266640365124,0.0701795592904091
-6.08497679004817,-14.7800777551102,-1.92479779472667,-8.50447544299529,-0.0491517186164856,0.0436612851917744,0.0703755393624306
-6.08497679004817,-14.7800777551102,-1.92479779472667,-8.50447544299529,-0.0491699948906899,0.0435951538383961,0.070571631193161
-6.08497679004817,-14.7800777551102,-1.92479779472667,-8.50447544299529,-0.0491878315806389,0.0435282737016678,0.070767842233181
-6.08497679004817,-14.7800777551102,-1.92479779472667,-8.50447544299529,-0.049205232411623,0.0434606447815895,0.0709641650319099
-6.08497679004817,-14.7800777551102,-1.92479779472667,-8.50447544299529,-0.0492221973836422,0.0433922708034515,0.0711606070399284
-6.08497679004817,-14.7800777551102,-1.92479779472667,-8.50447544299529,-0.0492387264966965,0.0433231480419636,0.0713571608066559
-6.08497679004817,-14.7800777551102,-1.92479779472667,-8.50447544299529,-0.0492548160254955,0.0432532802224159,0.0715538337826729
-6.08497679004817,-14.7800777551102,-1.92479779472667,-8.50447544299529,-0.0492704696953297,0.0431826673448086,0.0717506185173988
-6.08497679004817,-14.7800777551102,-1.92479779472667,-8.50447544299529,-0.0492856912314892,0.0431113094091415,0.0719475224614143
-6.08497679004817,-14.7800777551102,-1.92479779472667,-8.50447544299529,-0.0493004769086838,0.0430392064154148,0.0721445381641388
-6.08497679004817,-14.7800777551102,-1.92479779472667,-8.50447544299529,-0.0493148267269135,0.0429663583636284,0.0723416730761528
-6.08497679004817,-14.7800777551102,-1.92479779472667,-8.50447544299529,-0.0493287406861782,0.0428927652537823,0.0725389197468758
-6.08497679004817,-14.7800777551102,-1.92479779472667,-8.50447544299529,-0.0493422225117683,0.0428184308111668,0.0727362856268883
-6.08497679004817,-14.7800777551102,-1.92479779472667,-8.50447544299529,-0.0493552722036839,0.0427433550357819,0.0729337632656097
-6.08497679004817,-14.7800777551102,-1.92479779472667,-8.50447544299529,-0.0493678860366344,0.0426675379276276,0.0731313526630402
-6.08497679004817,-14.7800777551102,-1.92479779472667,-8.50447544299529,-0.0493800677359104,0.0425909794867039,0.0733290612697601
-6.08497679004817,-14.7800777551102,-1.92479779472667,-8.50447544299529,-0.0493918173015118,0.0425136797130108,0.0735268816351891
-6.08497679004817,-14.7800777551102,-1.92479779472667,-8.50447544299529,-0.0494031347334385,0.0424356386065483,0.0737248212099075
-6.08497679004817,-14.7800777551102,-1.92479779472667,-8.50447544299529,-0.0494140200316906,0.0423568598926067,0.073922872543335
-6.08497679004817,-14.7800777551102,-1.92479779472667,-8.50447544299529,-0.0494244731962681,0.0422773435711861,0.0741210430860519
-6.08497679004817,-14.7800777551102,-1.92479779472667,-8.50447544299529,-0.0494344942271709,0.0421970896422863,0.0743193253874779
-6.08497679004817,-14.7800777551102,-1.92479779472667,-8.50447544299529,-0.0494440868496895,0.0421160981059074,0.0745177268981934
-6.08497679004817,-14.7800777551102,-1.92479779472667,-8.50447544299529,-0.0494532473385334,0.0420343689620495,0.0747162401676178
-6.08497679004817,-14.7800777551102,-1.92479779472667,-8.50447544299529,-0.049461979418993,0.0419519022107124,0.0749148651957512
-6.08497679004817,-14.7800777551102,-1.92479779472667,-8.50447544299529,-0.0494702830910683,0.0418687015771866,0.0751136094331741
-6.08497679004817,-14.7800777551102,-1.92479779472667,-8.50447544299529,-0.0494781546294689,0.0417847633361816,0.075312465429306
-6.08497679004817,-14.7800777551102,-1.92479779472667,-8.50447544299529,-0.0494855977594852,0.0417000912129879,0.0755114406347275
-6.08497679004817,-14.7800777551102,-1.92479779472667,-8.50447544299529,-0.0494926124811172,0.0416146852076054,0.0757105275988579
-6.08497679004817,-14.7800777551102,-1.92479779472667,-8.50447544299529,-0.0494991987943649,0.041528545320034,0.0759097263216972
-6.08497679004817,-14.7800777551102,-1.92479779472667,-8.50447544299529,-0.0495053566992283,0.0414416752755642,0.0761090442538261
-6.08497679004817,-14.7800777551102,-1.92479779472667,-8.50447544299529,-0.0495110899209976,0.0413540713489056,0.076308473944664
-6.08497679004817,-14.7800777551102,-1.92479779472667,-8.50447544299529,-0.0495163947343826,0.0412657372653484,0.0765080153942108
-6.08497679004817,-14.7800777551102,-1.92479779472667,-8.50447544299529,-0.0495212748646736,0.0411766730248928,0.0767076760530472
-6.08497679004817,-14.7800777551102,-1.92479779472667,-8.50447544299529,-0.0495257265865803,0.0410868786275387,0.0769074484705925
-6.08497679004817,-14.7800777551102,-1.92479779472667,-8.50447544299529,-0.0495297536253929,0.0409963540732861,0.0771073326468468
-6.08497679004817,-14.7800777551102,-1.92479779472667,-8.50447544299529,-0.0495333559811115,0.0409050993621349,0.0773073360323906
-6.08497679004817,-14.7800777551102,-1.92479779472667,-8.50447544299529,-0.0495365299284458,0.0408131182193756,0.0775074511766434
-6.08497679004817,-14.7800777551102,-1.92479779472667,-8.50447544299529,-0.0495392791926861,0.0407204069197178,0.0777076780796051
-6.08497679004817,-14.7800777551102,-1.92479779472667,-8.50447544299529,-0.0495416037738323,0.0406269691884518,0.0779080241918564
-6.08497679004817,-14.7800777551102,-1.92479779472667,-8.50447544299529,-0.0495435073971748,0.0405328050255775,0.0781084820628166
-6.08497679004817,-14.7800777551102,-1.92479779472667,-8.50447544299529,-0.0495449863374233,0.0404379144310951,0.0783090516924858
-6.08497679004817,-14.7800777551102,-1.92479779472667,-8.50447544299529,-0.0495460405945778,0.0403422974050045,0.0785097405314446
-6.08497679004817,-14.7800777551102,-1.92479779472667,-8.50447544299529,-0.0495466738939285,0.040245957672596,0.0787105411291122
-6.08497679004817,-14.7800777551102,-1.92479779472667,-8.50447544299529,-0.0495468825101852,0.0401488915085793,0.0789114534854889
-6.08497679004817,-14.7800777551102,-1.92479779472667,-8.50447544299529,-0.0495466701686382,0.0400511026382446,0.0791124850511551
-6.08497679004817,-14.7800777551102,-1.92479779472667,-8.50447544299529,-0.0495460368692875,0.0399525910615921,0.0793136283755302
-6.08497679004817,-14.7800777551102,-1.92479779472667,-8.50447544299529,-0.0495449788868427,0.0398533567786217,0.0795148834586143
-6.08497679004817,-14.7800777551102,-1.92479779472667,-8.50447544299529,-0.0495434999465942,0.0397533997893333,0.0797162503004074
-6.08497679004817,-14.7800777551102,-1.92479779472667,-8.50447544299529,-0.049541600048542,0.0396527200937271,0.07991773635149
-6.08497679004817,-14.7800777551102,-1.92479779472667,-8.50447544299529,-0.0495392829179764,0.0395513214170933,0.0801193341612816
-6.08497679004817,-14.7800777551102,-1.92479779472667,-8.50447544299529,-0.049536544829607,0.0394492037594318,0.0803210437297821
-6.08497679004817,-14.7800777551102,-1.92479779472667,-8.50447544299529,-0.0495333857834339,0.0393463671207428,0.0805228650569916
-6.08497679004817,-14.7800777551102,-1.92479779472667,-8.50447544299529,-0.0495298095047474,0.0392428115010262,0.0807248055934906
-6.08497679004817,-14.7800777551102,-1.92479779472667,-8.50447544299529,-0.0495258122682571,0.0391385369002819,0.0809268578886986
-6.08497679004817,-14.7800777551102,-1.92479779472667,-8.50447544299529,-0.0495213977992535,0.0390335433185101,0.0811290219426155
-6.08497679004817,-14.7800777551102,-1.92479779472667,-8.50447544299529,-0.0495165623724461,0.0389278344810009,0.0813312977552414
-6.08497679004817,-14.7800777551102,-1.92479779472667,-8.50447544299529,-0.0495113097131252,0.0388214066624641,0.0815336853265762
-6.08497679004817,-14.7800777551102,-1.92479779472667,-8.50447544299529,-0.049505639821291,0.0387142635881901,0.0817361921072006
-6.08497679004817,-14.7800777551102,-1.92479779472667,-8.50447544299529,-0.0494995526969433,0.0386064052581787,0.081938810646534
-6.08497679004817,-14.7800777551102,-1.92479779472667,-8.50447544299529,-0.0494930483400822,0.03849783167243,0.0821415409445763
-6.08497679004817,-14.7800777551102,-1.92479779472667,-8.50447544299529,-0.0494861267507076,0.0383885428309441,0.0823443830013275
-6.08497679004817,-14.7800777551102,-1.92479779472667,-8.50447544299529,-0.04947879165411,0.0382785424590111,0.0825473368167877
-6.08497679004817,-14.7800777551102,-1.92479779472667,-8.50447544299529,-0.0494710393249989,0.0381678268313408,0.0827504098415375
-6.08497679004817,-14.7800777551102,-1.92479779472667,-8.50447544299529,-0.0494628734886646,0.0380563996732235,0.0829535946249962
-6.08497679004817,-14.7800777551102,-1.92479779472667,-8.50447544299529,-0.049454290419817,0.0379442609846592,0.0831568911671638
-6.08497679004817,-14.7800777551102,-1.92479779472667,-8.50447544299529,-0.0494452938437462,0.0378314107656479,0.0833602994680405
-6.08497679004817,-14.7800777551102,-1.92479779472667,-8.50447544299529,-0.0494358837604523,0.0377178490161896,0.083563819527626
-6.08497679004817,-14.7800777551102,-1.92479779472667,-8.50447544299529,-0.0494260564446449,0.0376035794615746,0.0837674587965012
-6.08497679004817,-14.7800777551102,-1.92479779472667,-8.50447544299529,-0.0494158156216145,0.0374885983765125,0.0839712098240852
-6.08497679004817,-14.7800777551102,-1.92479779472667,-8.50447544299529,-0.0494051650166512,0.0373729094862938,0.0841750726103783
-6.08497679004817,-14.7800777551102,-1.92479779472667,-8.50447544299529,-0.0493941009044647,0.0372565127909184,0.0843790471553802
-6.08497679004817,-14.7800777551102,-1.92479779472667,-8.50447544299529,-0.0493826232850552,0.0371394082903862,0.0845831334590912
-6.08497679004817,-14.7800777551102,-1.92479779472667,-8.50447544299529,-0.0493707321584225,0.0370215959846973,0.0847873315215111
-6.08497679004817,-14.7800777551102,-1.92479779472667,-8.50447544299529,-0.0493584312498569,0.0369030758738518,0.0849916413426399
-6.08497679004817,-14.7800777551102,-1.92479779472667,-8.50447544299529,-0.0493457168340683,0.0367838516831398,0.0851960629224777
-6.08497679004817,-14.7800777551102,-1.92479779472667,-8.50447544299529,-0.0493325926363468,0.0366639196872711,0.0854006037116051
-6.08497679004817,-14.7800777551102,-1.92479779472667,-8.50447544299529,-0.0493190586566925,0.036543283611536,0.0856052562594414
-6.08497679004817,-14.7800777551102,-1.92479779472667,-8.50447544299529,-0.0493051111698151,0.0364219434559345,0.0858100205659866
-6.08497679004817,-14.7800777551102,-1.92479779472667,-8.50447544299529,-0.0492907539010048,0.0362998992204666,0.0860148966312408
-6.08497679004817,-14.7800777551102,-1.92479779472667,-8.50447544299529,-0.0492759868502617,0.0361771509051323,0.086219884455204
-6.08497679004817,-14.7800777551102,-1.92479779472667,-8.50447544299529,-0.0492608137428761,0.0360537022352219,0.0864249840378761
-6.08497679004817,-14.7800777551102,-1.92479779472667,-8.50447544299529,-0.0492452308535576,0.035929549485445,0.0866301953792572
-6.08497679004817,-14.7800777551102,-1.92479779472667,-8.50447544299529,-0.0492292381823063,0.0358046963810921,0.0868355184793472
-6.08497679004817,-14.7800777551102,-1.92479779472667,-8.50447544299529,-0.0492128394544125,0.035679142922163,0.0870409533381462
-6.08497679004817,-14.7800777551102,-1.92479779472667,-8.50447544299529,-0.0491960309445858,0.0355528891086578,0.0872464999556541
-6.08497679004817,-14.7800777551102,-1.92479779472667,-8.50447544299529,-0.0491788163781166,0.0354259349405766,0.087452158331871
-6.08497679004817,-14.7800777551102,-1.92479779472667,-8.50447544299529,-0.0491611920297146,0.0352982841432095,0.0876579284667969
-6.08497679004817,-14.7800777551102,-1.92479779472667,-8.50447544299529,-0.04914316162467,0.0351699329912663,0.0878638103604317
-6.08497679004817,-14.7800777551102,-1.92479779472667,-8.50447544299529,-0.0491247251629829,0.0350408852100372,0.0880698040127754
-6.08497679004817,-14.7800777551102,-1.92479779472667,-8.50447544299529,-0.0491058826446533,0.0349111407995224,0.0882759094238281
-6.08497679004817,-14.7800777551102,-1.92479779472667,-8.50447544299529,-0.0490866340696812,0.0347806997597218,0.0884821265935898
-6.08497679004817,-14.7800777551102,-1.92479779472667,-8.50447544299529,-0.0490669794380665,0.0346495620906353,0.0886884555220604
-6.08497679004817,-14.7800777551102,-1.92479779472667,-8.50447544299529,-0.0490469187498093,0.034517727792263,0.08889489620924
-6.08497679004817,-14.7800777551102,-1.92479779472667,-8.50447544299529,-0.0490264557301998,0.0343852005898952,0.0891014486551285
-6.08497679004817,-14.7800777551102,-1.92479779472667,-8.50447544299529,-0.0490055866539478,0.0342519767582417,0.089308112859726
-6.08497679004817,-14.7800777551102,-1.92479779472667,-8.50447544299529,-0.0489843152463436,0.0341180600225925,0.0895148888230324
-6.08497679004817,-14.7800777551102,-1.92479779472667,-8.50447544299529,-0.0489626377820969,0.0339834503829479,0.0897217765450478
-6.08497679004817,-14.7800777551102,-1.92479779472667,-8.50447544299529,-0.0489405579864979,0.0338481478393078,0.0899287760257721
-6.08497679004817,-14.7800777551102,-1.92479779472667,-8.50447544299529,-0.0489180758595467,0.0337121523916721,0.0901358872652054
-6.08497679004817,-14.7800777551102,-1.92479779472667,-8.50447544299529,-0.0488951914012432,0.0335754677653313,0.0903431102633476
-6.08497679004817,-14.7800777551102,-1.92479779472667,-8.50447544299529,-0.0488719046115875,0.0334380902349949,0.0905504450201988
-6.08497679004817,-14.7800777551102,-1.92479779472667,-8.50447544299529,-0.0488482154905796,0.0333000235259533,0.090757891535759
-6.08497679004817,-14.7800777551102,-1.92479779472667,-8.50447544299529,-0.0488241240382195,0.0331612676382065,0.0909654498100281
-6.08497679004817,-14.7800777551102,-1.92479779472667,-8.50447544299529,-0.0487996339797974,0.0330218225717545,0.0911731198430061
-6.08497679004817,-14.7800777551102,-1.92479779472667,-8.50447544299529,-0.048774741590023,0.0328816883265972,0.0913809016346931
-6.08497679004817,-14.7800777551102,-1.92479779472667,-8.50447544299529,-0.0487494505941868,0.0327408649027348,0.0915887951850891
-6.08497679004817,-14.7800777551102,-1.92479779472667,-8.50447544299529,-0.0487237572669983,0.0325993560254574,0.091796800494194
-6.08497679004817,-14.7800777551102,-1.92479779472667,-8.50447544299529,-0.0486976653337479,0.0324571579694748,0.0920049175620079
-6.08497679004817,-14.7800777551102,-1.92479779472667,-8.50447544299529,-0.0486711747944355,0.0323142744600773,0.0922131463885307
-6.08497679004817,-14.7800777551102,-1.92479779472667,-8.50447544299529,-0.0486442819237709,0.0321707054972649,0.0924214869737625
-6.08497679004817,-14.7800777551102,-1.92479779472667,-8.50447544299529,-0.0486169904470444,0.0320264510810375,0.0926299393177032
-6.08497679004817,-14.7800777551102,-1.92479779472667,-8.50447544299529,-0.0485893003642559,0.0318815112113953,0.0928384959697723
-6.08497679004817,-14.7800777551102,-1.92479779472667,-8.50447544299529,-0.0485612154006958,0.0317358896136284,0.0930471643805504
-6.08497679004817,-14.7800777551102,-1.92479779472667,-8.50447544299529,-0.0485327318310738,0.0315895825624466,0.0932559445500374
-6.08497679004817,-14.7800777551102,-1.92479779472667,-8.50447544299529,-0.0485038496553898,0.0314425937831402,0.0934648364782333
-6.08497679004817,-14.7800777551102,-1.92479779472667,-8.50447544299529,-0.0484745725989342,0.0312949232757092,0.0936738401651382
-6.08497679004817,-14.7800777551102,-1.92479779472667,-8.50447544299529,-0.0484448969364166,0.0311465691775084,0.0938829556107521
-6.08497679004817,-14.7800777551102,-1.92479779472667,-8.50447544299529,-0.0484148263931274,0.0309975352138281,0.0940921828150749
-6.08497679004817,-14.7800777551102,-1.92479779472667,-8.50447544299529,-0.0483843609690666,0.0308478195220232,0.0943015217781067
-6.08497679004817,-14.7800777551102,-1.92479779472667,-8.50447544299529,-0.0483534969389439,0.0306974239647388,0.0945109650492668
-6.08497679004817,-14.7800777551102,-1.92479779472667,-8.50447544299529,-0.0483222380280495,0.0305463504046202,0.0947205200791359
-6.08497679004817,-14.7800777551102,-1.92479779472667,-8.50447544299529,-0.0482905842363834,0.030394596979022,0.0949301868677139
-6.08497679004817,-14.7800777551102,-1.92479779472667,-8.50447544299529,-0.0482585355639458,0.0302421655505896,0.0951399654150009
-6.08497679004817,-14.7800777551102,-1.92479779472667,-8.50447544299529,-0.0482260957360268,0.0300890561193228,0.0953498557209969
-6.08497679004817,-14.7800777551102,-1.92479779472667,-8.50447544299529,-0.0481932610273361,0.0299352705478668,0.0955598577857018
-6.08497679004817,-14.7800777551102,-1.92479779472667,-8.50447544299529,-0.0481600314378738,0.0297808069735765,0.095769964158535
-6.08497679004817,-14.7800777551102,-1.92479779472667,-8.50447544299529,-0.0481264106929302,0.0296256672590971,0.0959801822900772
-6.08497679004817,-14.7800777551102,-1.92479779472667,-8.50447544299529,-0.048092395067215,0.0294698532670736,0.0961905121803284
-6.08497679004817,-14.7800777551102,-1.92479779472667,-8.50447544299529,-0.0480579882860184,0.0293133649975061,0.0964009538292885
-6.08497679004817,-14.7800777551102,-1.92479779472667,-8.50447544299529,-0.0480231903493404,0.0291562024503946,0.0966115072369576
-6.08497679004817,-14.7800777551102,-1.92479779472667,-8.50447544299529,-0.0479879975318909,0.0289983656257391,0.096822164952755
-6.08497679004817,-14.7800777551102,-1.92479779472667,-8.50447544299529,-0.04795241355896,0.0288398545235395,0.0970329344272614
-6.08497679004817,-14.7800777551102,-1.92479779472667,-8.50447544299529,-0.0479164384305477,0.0286806710064411,0.0972438156604767
-6.08497679004817,-14.7800777551102,-1.92479779472667,-8.50447544299529,-0.0478800758719444,0.028520816937089,0.097454808652401
-6.08497679004817,-14.7800777551102,-1.92479779472667,-8.50447544299529,-0.0478433221578598,0.0283602904528379,0.0976659059524536
-6.08497679004817,-14.7800777551102,-1.92479779472667,-8.50447544299529,-0.0478061772882938,0.0281990934163332,0.0978771150112152
-6.08497679004817,-14.7800777551102,-1.92479779472667,-8.50447544299529,-0.0477686412632465,0.0280372258275747,0.0980884358286858
-6.08497679004817,-14.7800777551102,-1.92479779472667,-8.50447544299529,-0.0477307178080082,0.0278746895492077,0.0982998684048653
-6.08497679004817,-14.7800777551102,-1.92479779472667,-8.50447544299529,-0.0476924031972885,0.0277114827185869,0.0985114052891731
-6.08497679004817,-14.7800777551102,-1.92479779472667,-8.50447544299529,-0.0476537011563778,0.0275476071983576,0.0987230539321899
-6.08497679004817,-14.7800777551102,-1.92479779472667,-8.50447544299529,-0.047614611685276,0.0273830648511648,0.0989348143339157
-6.08497679004817,-14.7800777551102,-1.92479779472667,-8.50447544299529,-0.0475751347839832,0.0272178538143635,0.0991466790437698
-6.08497679004817,-14.7800777551102,-1.92479779472667,-8.50447544299529,-0.0475352704524994,0.0270519759505987,0.0993586555123329
-6.08497679004817,-14.7800777551102,-1.92479779472667,-8.50447544299529,-0.0474950186908245,0.0268854331225157,0.099570743739605
-6.08497679004817,-14.7800777551102,-1.92479779472667,-8.50447544299529,-0.0474543794989586,0.0267182234674692,0.0997829437255859
-6.08497679004817,-14.7800777551102,-1.92479779472667,-8.50447544299529,-0.0474133528769016,0.0265503488481045,0.0999952480196953
-6.08497679004817,-14.7800777551102,-1.92479779472667,-8.50447544299529,-0.0473719388246536,0.0263818092644215,0.100207664072514
-6.08497679004817,-14.7800777551102,-1.92479779472667,-8.50447544299529,-0.0473301410675049,0.0262126065790653,0.100420191884041
-6.08497679004817,-14.7800777551102,-1.92479779472667,-8.50447544299529,-0.0472879558801651,0.0260427389293909,0.100632824003696
-6.08497679004817,-14.7800777551102,-1.92479779472667,-8.50447544299529,-0.0472453869879246,0.0258722081780434,0.100845567882061
-6.08497679004817,-14.7800777551102,-1.92479779472667,-8.50447544299529,-0.0472024343907833,0.0257010161876678,0.101058423519135
-6.08497679004817,-14.7800777551102,-1.92479779472667,-8.50447544299529,-0.047159094363451,0.0255291629582644,0.101271383464336
-6.08497679004817,-14.7800777551102,-1.92479779472667,-8.50447544299529,-0.047115370631218,0.0253566484898329,0.101484455168247
-6.08497679004817,-14.7800777551102,-1.92479779472667,-8.50447544299529,-0.0470712631940842,0.0251834727823734,0.101697638630867
-6.08497679004817,-14.7800777551102,-1.92479779472667,-8.50447544299529,-0.0470267720520496,0.025009635835886,0.101910926401615
-6.08497679004817,-14.7800777551102,-1.92479779472667,-8.50447544299529,-0.0469818972051144,0.0248351395130157,0.102124325931072
-6.08497679004817,-14.7800777551102,-1.92479779472667,-8.50447544299529,-0.0469366423785686,0.0246599838137627,0.102337829768658
-6.08497679004817,-14.7800777551102,-1.92479779472667,-8.50447544299529,-0.0468910038471222,0.0244841706007719,0.102551445364952
-6.08497679004817,-14.7800777551102,-1.92479779472667,-8.50447544299529,-0.046844981610775,0.0243076998740435,0.102765172719955
-6.08497679004817,-14.7800777551102,-1.92479779472667,-8.50447544299529,-0.0467985793948174,0.0241305716335773,0.102979004383087
-6.08497679004817,-14.7800777551102,-1.92479779472667,-8.50447544299529,-0.0467517971992493,0.0239527858793736,0.103192947804928
-6.08497679004817,-14.7800777551102,-1.92479779472667,-8.50447544299529,-0.0467046312987804,0.0237743444740772,0.103406995534897
-6.08497679004817,-14.7800777551102,-1.92479779472667,-8.50447544299529,-0.0466570854187012,0.0235952474176884,0.103621155023575
-6.08497679004817,-14.7800777551102,-1.92479779472667,-8.50447544299529,-0.0466091595590115,0.023415494710207,0.103835426270962
-6.08497679004817,-14.7800777551102,-1.92479779472667,-8.50447544299529,-0.0465608537197113,0.0232350882142782,0.104049801826477
-6.08497679004817,-14.7800777551102,-1.92479779472667,-8.50447544299529,-0.0465121679008007,0.0230540279299021,0.104264289140701
-6.08497679004817,-14.7800777551102,-1.92479779472667,-8.50447544299529,-0.0464631021022797,0.0228723138570786,0.104478880763054
-6.08497679004817,-14.7800777551102,-1.92479779472667,-8.50447544299529,-0.0464136563241482,0.0226899459958076,0.104693584144115
-6.08497679004817,-14.7800777551102,-1.92479779472667,-8.50447544299529,-0.0463638342916965,0.0225069262087345,0.104908391833305
-6.08497679004817,-14.7800777551102,-1.92479779472667,-8.50447544299529,-0.0463136322796345,0.0223232544958591,0.105123311281204
-6.08497679004817,-14.7800777551102,-1.92479779472667,-8.50447544299529,-0.0462630540132523,0.0221389327198267,0.105338335037231
-6.08497679004817,-14.7800777551102,-1.92479779472667,-8.50447544299529,-0.0462120957672596,0.021953959017992,0.105553470551968
-6.08497679004817,-14.7800777551102,-1.92479779472667,-8.50447544299529,-0.0461607612669468,0.0217683352530003,0.105768710374832
-6.08497679004817,-14.7800777551102,-1.92479779472667,-8.50447544299529,-0.0461090505123138,0.0215820632874966,0.105984061956406
-6.08497679004817,-14.7800777551102,-1.92479779472667,-8.50447544299529,-0.0460569635033607,0.0213951412588358,0.106199517846107
-6.08497679004817,-14.7800777551102,-1.92479779472667,-8.50447544299529,-0.0460045002400875,0.0212075710296631,0.106415085494518
-6.08497679004817,-14.7800777551102,-1.92479779472667,-8.50447544299529,-0.0459516607224941,0.0210193525999784,0.106630757451057
-6.08497679004817,-14.7800777551102,-1.92479779472667,-8.50447544299529,-0.0458984449505806,0.020830487832427,0.106846541166306
-6.08497679004817,-14.7800777551102,-1.92479779472667,-8.50447544299529,-0.0458448529243469,0.0206409767270088,0.107062429189682
-6.08497679004817,-14.7800777551102,-1.92479779472667,-8.50447544299529,-0.0457908846437931,0.0204508192837238,0.107278428971767
-6.08497679004817,-14.7800777551102,-1.92479779472667,-8.50447544299529,-0.0457365438342094,0.0202600155025721,0.107494533061981
-6.08497679004817,-14.7800777551102,-1.92479779472667,-8.50447544299529,-0.0456818267703056,0.0200685672461987,0.107710748910904
-6.08497679004817,-14.7800777551102,-1.92479779472667,-8.50447544299529,-0.045626737177372,0.0198764745146036,0.107927069067955
-6.08497679004817,-14.7800777551102,-1.92479779472667,-8.50447544299529,-0.0455712750554085,0.0196837373077869,0.108143500983715
-6.08497679004817,-14.7800777551102,-1.92479779472667,-8.50447544299529,-0.0455154366791248,0.0194903574883938,0.108360037207603
-6.08497679004817,-14.7800777551102,-1.92479779472667,-8.50447544299529,-0.0454592257738113,0.019296333193779,0.108576685190201
-6.08497679004817,-14.7800777551102,-1.92479779472667,-8.50447544299529,-0.045402642339468,0.0191016681492329,0.108793437480927
-6.08497679004817,-14.7800777551102,-1.92479779472667,-8.50447544299529,-0.0453456863760948,0.0189063604921103,0.109010294079781
-6.08497679004817,-14.7800777551102,-1.92479779472667,-8.50447544299529,-0.0452883616089821,0.0187104120850563,0.109227262437344
-6.08497679004817,-14.7800777551102,-1.92479779472667,-8.50447544299529,-0.0452306643128395,0.018513822928071,0.109444335103035
-6.08497679004817,-14.7800777551102,-1.92479779472667,-8.50447544299529,-0.0451725944876671,0.0183165930211544,0.109661519527435
-6.08497679004817,-14.7800777551102,-1.92479779472667,-8.50447544299529,-0.0451141521334648,0.0181187242269516,0.109878808259964
-6.08497679004817,-14.7800777551102,-1.92479779472667,-8.50447544299529,-0.045055340975523,0.0179202165454626,0.110096208751202
-6.08497679004817,-14.7800777551102,-1.92479779472667,-8.50447544299529,-0.0449961610138416,0.0177210699766874,0.110313713550568
-6.08497679004817,-14.7800777551102,-1.92479779472667,-8.50447544299529,-0.0449366085231304,0.0175212863832712,0.110531322658062
-6.08497679004817,-14.7800777551102,-1.92479779472667,-8.50447544299529,-0.0448766872286797,0.0173208639025688,0.110749043524265
-6.08497679004817,-14.7800777551102,-1.92479779472667,-8.50447544299529,-0.0448163971304893,0.0171198062598705,0.110966868698597
-6.08497679004817,-14.7800777551102,-1.92479779472667,-8.50447544299529,-0.0447557382285595,0.0169181115925312,0.111184798181057
-6.08497679004817,-14.7800777551102,-1.92479779472667,-8.50447544299529,-0.0446947105228901,0.016715781763196,0.111402839422226
-6.08497679004817,-14.7800777551102,-1.92479779472667,-8.50447544299529,-0.0446333140134811,0.0165128167718649,0.111620984971523
-6.08497679004817,-14.7800777551102,-1.92479779472667,-8.50447544299529,-0.0445715487003326,0.0163092166185379,0.111839234828949
-6.08497679004817,-14.7800777551102,-1.92479779472667,-8.50447544299529,-0.0445094183087349,0.0161049831658602,0.112057596445084
-6.08497679004817,-14.7800777551102,-1.92479779472667,-8.50447544299529,-0.0444469191133976,0.0159001145511866,0.112276062369347
-6.08497679004817,-14.7800777551102,-1.92479779472667,-8.50447544299529,-0.0443840548396111,0.0156946144998074,0.112494632601738
-6.08497679004817,-14.7800777551102,-1.92479779472667,-8.50447544299529,-0.044320821762085,0.0154884811490774,0.112713314592838
-6.08497679004817,-14.7800777551102,-1.92479779472667,-8.50447544299529,-0.0442572236061096,0.0152817163616419,0.112932100892067
-6.08497679004817,-14.7800777551102,-1.92479779472667,-8.50447544299529,-0.044193260371685,0.0150743201375008,0.113150991499424
-6.08497679004817,-14.7800777551102,-1.92479779472667,-8.50447544299529,-0.0441289283335209,0.0148662934079766,0.11336999386549
-6.08497679004817,-14.7800777551102,-1.92479779472667,-8.50447544299529,-0.0440642312169075,0.0146576361730695,0.113589100539684
-6.08497679004817,-14.7800777551102,-1.92479779472667,-8.50447544299529,-0.0439991690218449,0.0144483493641019,0.113808311522007
-6.08497679004817,-14.7800777551102,-1.92479779472667,-8.50447544299529,-0.043933741748333,0.0142384329810739,0.114027634263039
-6.08497679004817,-14.7800777551102,-1.92479779472667,-8.50447544299529,-0.0438679531216621,0.014027887955308,0.114247061312199
-6.08497679004817,-14.7800777551102,-1.92479779472667,-8.50447544299529,-0.0438017994165421,0.0138167152181268,0.114466592669487
-6.08497679004817,-14.7800777551102,-1.92479779472667,-8.50447544299529,-0.0437352806329727,0.0136049147695303,0.114686228334904
-6.08497679004817,-14.7800777551102,-1.92479779472667,-8.50447544299529,-0.0436684004962444,0.0133924875408411,0.114905975759029
-6.08497679004817,-14.7800777551102,-1.92479779472667,-8.50447544299529,-0.0436011552810669,0.0131794344633818,0.115125827491283
-6.08497679004817,-14.7800777551102,-1.92479779472667,-8.50447544299529,-0.0435335487127304,0.0129657555371523,0.115345783531666
-6.08497679004817,-14.7800777551102,-1.92479779472667,-8.50447544299529,-0.043465580791235,0.0127514507621527,0.115565843880177
-6.08497679004817,-14.7800777551102,-1.92479779472667,-8.50447544299529,-0.0433972515165806,0.0125365210697055,0.115786008536816
-6.08497679004817,-14.7800777551102,-1.92479779472667,-8.50447544299529,-0.0433285608887672,0.0123209673911333,0.116006284952164
-6.08497679004817,-14.7800777551102,-1.92479779472667,-8.50447544299529,-0.043259508907795,0.0121047897264361,0.11622666567564
-6.08497679004817,-14.7800777551102,-1.92479779472667,-8.50447544299529,-0.0431900955736637,0.0118879890069366,0.116447150707245
-6.08497679004817,-14.7800777551102,-1.92479779472667,-8.50447544299529,-0.0431203208863735,0.0116705661639571,0.116667740046978
-6.08497679004817,-14.7800777551102,-1.92479779472667,-8.50447544299529,-0.0430501848459244,0.0114525211974978,0.11688844114542
-6.08497679004817,-14.7800777551102,-1.92479779472667,-8.50447544299529,-0.0429796874523163,0.0112338550388813,0.117109246551991
-6.08497679004817,-14.7800777551102,-1.92479779472667,-8.50447544299529,-0.0429088324308395,0.0110145676881075,0.117330156266689
-6.08497679004817,-14.7800777551102,-1.92479779472667,-8.50447544299529,-0.0428376160562038,0.010794660076499,0.117551170289516
-6.08497679004817,-14.7800777551102,-1.92479779472667,-8.50447544299529,-0.0427660420536995,0.0105741322040558,0.117772288620472
-6.08497679004817,-14.7800777551102,-1.92479779472667,-8.50447544299529,-0.0426941104233265,0.0103529850021005,0.117993511259556
-6.08497679004817,-14.7800777551102,-1.92479779472667,-8.50447544299529,-0.0426218211650848,0.0101312194019556,0.118214845657349
-6.08497679004817,-14.7800777551102,-1.92479779472667,-8.50447544299529,-0.0425491705536842,0.0099088354036212,0.11843628436327
-6.08497679004817,-14.7800777551102,-1.92479779472667,-8.50447544299529,-0.042476162314415,0.00968583393841982,0.118657827377319
-6.08497679004817,-14.7800777551102,-1.92479779472667,-8.50447544299529,-0.0424027964472771,0.00946221500635147,0.118879474699497
-6.08497679004817,-14.7800777551102,-1.92479779472667,-8.50447544299529,-0.0423290766775608,0.00923797953873873,0.119101226329803
-6.08497679004817,-14.7800777551102,-1.92479779472667,-8.50447544299529,-0.0422549992799759,0.00901312753558159,0.119323082268238
-6.08497679004817,-14.7800777551102,-1.92479779472667,-8.50447544299529,-0.0421805642545223,0.00878765992820263,0.119545042514801
-6.08497679004817,-14.7800777551102,-1.92479779472667,-8.50447544299529,-0.0421057753264904,0.00856157764792442,0.119767107069492
-6.08497679004817,-14.7800777551102,-1.92479779472667,-8.50447544299529,-0.0420306287705898,0.00833488069474697,0.119989283382893
-6.08497679004817,-14.7800777551102,-1.92479779472667,-8.50447544299529,-0.0419551283121109,0.00810756999999285,0.120211564004421
-6.08497679004817,-14.7800777551102,-1.92479779472667,-8.50447544299529,-0.0418792702257633,0.00787964556366205,0.120433948934078
-6.08497679004817,-14.7800777551102,-1.92479779472667,-8.50447544299529,-0.0418030582368374,0.00765110831707716,0.120656438171864
-6.08497679004817,-14.7800777551102,-1.92479779472667,-8.50447544299529,-0.0417264923453331,0.00742195872589946,0.120879031717777
-6.08497679004817,-14.7800777551102,-1.92479779472667,-8.50447544299529,-0.0416495725512505,0.00719219725579023,0.121101729571819
-6.08497679004817,-14.7800777551102,-1.92479779472667,-8.50447544299529,-0.0415722988545895,0.00696182483807206,0.12132453173399
-6.08497679004817,-14.7800777551102,-1.92479779472667,-8.50447544299529,-0.0414946712553501,0.00673084147274494,0.121547438204288
-6.08497679004817,-14.7800777551102,-1.92479779472667,-8.50447544299529,-0.0414166897535324,0.00649924809113145,0.121770448982716
-6.08497679004817,-14.7800777551102,-1.92479779472667,-8.50447544299529,-0.0413383580744267,0.00626704515889287,0.121993564069271
-6.08497679004817,-14.7800777551102,-1.92479779472667,-8.50447544299529,-0.0412596724927425,0.00603423314169049,0.122216783463955
-6.08497679004817,-14.7800777551102,-1.92479779472667,-8.50447544299529,-0.0411806330084801,0.0058008125051856,0.122440107166767
-6.08497679004817,-14.7800777551102,-1.92479779472667,-8.50447544299529,-0.0411012433469296,0.00556678371503949,0.122663535177708
-6.08497679004817,-14.7800777551102,-1.92479779472667,-8.50447544299529,-0.041021503508091,0.00533214723691344,0.122887067496777
-6.08497679004817,-14.7800777551102,-1.92479779472667,-8.50447544299529,-0.040941409766674,0.00509690400213003,0.123110704123974
-6.08497679004817,-14.7800777551102,-1.92479779472667,-8.50447544299529,-0.0408609658479691,0.00486105447635055,0.123334445059299
-6.08497679004817,-14.7800777551102,-1.92479779472667,-8.50447544299529,-0.040780171751976,0.00462459865957499,0.123558290302753
-6.08497679004817,-14.7800777551102,-1.92479779472667,-8.50447544299529,-0.0406990274786949,0.00438753748312593,0.123782239854336
-6.08497679004817,-14.7800777551102,-1.92479779472667,-8.50447544299529,-0.0406175330281258,0.00414987187832594,0.124006293714046
-6.08497679004817,-14.7800777551102,-1.92479779472667,-8.50447544299529,-0.0405356884002686,0.00391160184517503,0.124230451881886
-6.08497679004817,-14.7800777551102,-1.92479779472667,-8.50447544299529,-0.0404534935951233,0.00367272784933448,0.124454714357853
-6.08497679004817,-14.7800777551102,-1.92479779472667,-8.50447544299529,-0.0403709523379803,0.00343325082212687,0.124679081141949
-6.08497679004817,-14.7800777551102,-1.92479779472667,-8.50447544299529,-0.0402880609035492,0.00319317099638283,0.124903552234173
-6.08497679004817,-14.7800777551102,-1.92479779472667,-8.50447544299529,-0.0402048230171204,0.00295248907059431,0.125128135085106
-6.08497679004817,-14.7800777551102,-1.92479779472667,-8.50447544299529,-0.0401212349534035,0.00271120551042259,0.125352814793587
-6.08497679004817,-14.7800777551102,-1.92479779472667,-8.50447544299529,-0.0400373004376888,0.00246932078152895,0.125577598810196
-6.08497679004817,-14.7800777551102,-1.92479779472667,-8.50447544299529,-0.0399530194699764,0.00222683534957469,0.125802487134933
-6.08497679004817,-14.7800777551102,-1.92479779472667,-8.50447544299529,-0.0398683920502663,0.00198374991305172,0.126027479767799
-6.08497679004817,-14.7800777551102,-1.92479779472667,-8.50447544299529,-0.0397834181785584,0.00174006493762136,0.126252576708794
-6.08497679004817,-14.7800777551102,-1.92479779472667,-8.50447544299529,-0.0396980978548527,0.00149578100536019,0.126477777957916
-6.08497679004817,-14.7800777551102,-1.92479779472667,-8.50447544299529,-0.0396124310791492,0.00125089869834483,0.126703083515167
-6.08497679004817,-14.7800777551102,-1.92479779472667,-8.50447544299529,-0.0395264178514481,0.00100541836582124,0.126928493380547
-6.08497679004817,-14.7800777551102,-1.92479779472667,-8.50447544299529,-0.0394400581717491,0.000759340706281364,0.127154007554054
-6.08497679004817,-14.7800777551102,-1.92479779472667,-8.50447544299529,-0.0393533520400524,0.000512666185386479,0.12737962603569
-6.08497679004817,-14.7800777551102,-1.92479779472667,-8.50447544299529,-0.0392663031816483,0.000265395327005535,0.127605348825455
-6.08497679004817,-14.7800777551102,-1.92479779472667,-8.50447544299529,-0.0391789078712463,1.75286259036511e-05,0.127831175923347
-6.08497679004817,-14.7800777551102,-1.92479779472667,-8.50447544299529,-0.039091169834137,-0.000230933364946395,0.128057092428207
-6.08497679004817,-14.7800777551102,-1.92479779472667,-8.50447544299529,-0.0390030890703201,-0.000479990092571825,0.128283113241196
-6.08497679004817,-14.7800777551102,-1.92479779472667,-8.50447544299529,-0.0389146655797958,-0.00072964106220752,0.128509238362312
-6.08497679004817,-14.7800777551102,-1.92479779472667,-8.50447544299529,-0.0388258956372738,-0.000979885691776872,0.128735467791557
-6.08497679004817,-14.7800777551102,-1.92479779472667,-8.50447544299529,-0.0387367829680443,-0.00123072345741093,0.128961801528931
-6.08497679004817,-14.7800777551102,-1.92479779472667,-8.50447544299529,-0.0386473275721073,-0.00148215400986373,0.129188239574432
-6.08497679004817,-14.7800777551102,-1.92479779472667,-8.50447544299529,-0.0385575331747532,-0.00173417665064335,0.129414781928062
-6.08497679004817,-14.7800777551102,-1.92479779472667,-8.50447544299529,-0.0384673960506916,-0.00198679091408849,0.129641428589821
-6.08497679004817,-14.7800777551102,-1.92479779472667,-8.50447544299529,-0.0383769161999226,-0.00223999610170722,0.129868179559708
-6.08497679004817,-14.7800777551102,-1.92479779472667,-8.50447544299529,-0.0382860973477364,-0.00249379174783826,0.130095034837723
-6.08497679004817,-14.7800777551102,-1.92479779472667,-8.50447544299529,-0.0381949357688427,-0.00274817738682032,0.130321994423866
-6.08497679004817,-14.7800777551102,-1.92479779472667,-8.50447544299529,-0.0381034351885319,-0.00300315255299211,0.130549043416977
-6.08497679004817,-14.7800777551102,-1.92479779472667,-8.50447544299529,-0.0380115918815136,-0.00325871678069234,0.130776196718216
-6.08497679004817,-14.7800777551102,-1.92479779472667,-8.50447544299529,-0.0379194095730782,-0.00351486937142909,0.131003454327583
-6.08497679004817,-14.7800777551102,-1.92479779472667,-8.50447544299529,-0.0378268882632256,-0.00377160985954106,0.131230816245079
-6.08497679004817,-14.7800777551102,-1.92479779472667,-8.50447544299529,-0.0377340279519558,-0.00402893777936697,0.131458282470703
-6.08497679004817,-14.7800777551102,-1.92479779472667,-8.50447544299529,-0.0376408286392689,-0.00428685266524553,0.131685853004456
-6.08497679004817,-14.7800777551102,-1.92479779472667,-8.50447544299529,-0.0375472903251648,-0.00454535381868482,0.131913527846336
-6.08497679004817,-14.7800777551102,-1.92479779472667,-8.50447544299529,-0.0374534130096436,-0.00480444077402353,0.132141306996346
-6.08497679004817,-14.7800777551102,-1.92479779472667,-8.50447544299529,-0.0373591966927052,-0.0050641130656004,0.132369190454483
-6.08497679004817,-14.7800777551102,-1.92479779472667,-8.50447544299529,-0.0372646450996399,-0.00532437022775412,0.132597163319588
-6.08497679004817,-14.7800777551102,-1.92479779472667,-8.50447544299529,-0.0371697545051575,-0.00558521132916212,0.132825240492821
-6.08497679004817,-14.7800777551102,-1.92479779472667,-8.50447544299529,-0.0370745249092579,-0.00584663636982441,0.133053421974182
-6.08497679004817,-14.7800777551102,-1.92479779472667,-8.50447544299529,-0.0369789600372314,-0.00610864441841841,0.133281707763672
-6.08497679004817,-14.7800777551102,-1.92479779472667,-8.50447544299529,-0.0368830598890781,-0.00637123547494411,0.13351009786129
-6.08497679004817,-14.7800777551102,-1.92479779472667,-8.50447544299529,-0.0367868207395077,-0.00663440860807896,0.133738592267036
-6.08497679004817,-14.7800777551102,-1.92479779472667,-8.50447544299529,-0.0366902463138103,-0.00689816335216165,0.133967190980911
-6.08497679004817,-14.7800777551102,-1.92479779472667,-8.50447544299529,-0.0365933366119862,-0.0071624992415309,0.134195879101753
-6.08497679004817,-14.7800777551102,-1.92479779472667,-8.50447544299529,-0.0364960916340351,-0.00742741581052542,0.134424671530724
-6.08497679004817,-14.7800777551102,-1.92479779472667,-8.50447544299529,-0.0363985113799572,-0.00769291212782264,0.134653568267822
-6.08497679004817,-14.7800777551102,-1.92479779472667,-8.50447544299529,-0.0363005958497524,-0.00795898772776127,0.134882569313049
-6.08497679004817,-14.7800777551102,-1.92479779472667,-8.50447544299529,-0.0362023487687111,-0.0082256430760026,0.135111674666405
-6.08497679004817,-14.7800777551102,-1.92479779472667,-8.50447544299529,-0.0361037664115429,-0.00849287677556276,0.135340884327888
-6.08497679004817,-14.7800777551102,-1.92479779472667,-8.50447544299529,-0.0360048487782478,-0.00876068789511919,0.135570183396339
-6.08497679004817,-14.7800777551102,-1.92479779472667,-8.50447544299529,-0.0359055995941162,-0.00902907643467188,0.135799586772919
-6.08497679004817,-14.7800777551102,-1.92479779472667,-8.50447544299529,-0.035806018859148,-0.00929804239422083,0.136029094457626
-6.08497679004817,-14.7800777551102,-1.92479779472667,-8.50447544299529,-0.035706102848053,-0.00956758484244347,0.136258706450462
-6.08497679004817,-14.7800777551102,-1.92479779472667,-8.50447544299529,-0.0356058552861214,-0.00983770284801722,0.136488422751427
-6.08497679004817,-14.7800777551102,-1.92479779472667,-8.50447544299529,-0.0355052761733532,-0.0101083964109421,0.136718228459358
-6.08497679004817,-14.7800777551102,-1.92479779472667,-8.50447544299529,-0.0354043655097485,-0.0103796645998955,0.136948138475418
-6.08497679004817,-14.7800777551102,-1.92479779472667,-8.50447544299529,-0.0353031232953072,-0.0106515074148774,0.137178152799606
-6.08497679004817,-14.7800777551102,-1.92479779472667,-8.50447544299529,-0.0352015495300293,-0.0109239239245653,0.137408271431923
-6.08497679004817,-14.7800777551102,-1.92479779472667,-8.50447544299529,-0.0350996442139149,-0.0111969141289592,0.137638494372368
-6.08497679004817,-14.7800777551102,-1.92479779472667,-8.50447544299529,-0.0349974073469639,-0.0114704770967364,0.13786880671978
-6.08497679004817,-14.7800777551102,-1.92479779472667,-8.50447544299529,-0.0348948426544666,-0.0117446118965745,0.13809922337532
-6.08497679004817,-14.7800777551102,-1.92479779472667,-8.50447544299529,-0.0347919464111328,-0.0120193185284734,0.138329744338989
-6.08497679004817,-14.7800777551102,-1.92479779472667,-8.50447544299529,-0.0346887223422527,-0.0122945969924331,0.138560369610786
-6.08497679004817,-14.7800777551102,-1.92479779472667,-8.50447544299529,-0.0345851667225361,-0.012570446357131,0.138791084289551
-6.08497679004817,-14.7800777551102,-1.92479779472667,-8.50447544299529,-0.0344812832772732,-0.0128468656912446,0.139021903276443
-6.08497679004817,-14.7800777551102,-1.92479779472667,-8.50447544299529,-0.034377072006464,-0.0131238549947739,0.139252826571465
-6.08497679004817,-14.7800777551102,-1.92479779472667,-8.50447544299529,-0.0342725329101086,-0.0134014133363962,0.139483854174614
-6.08497679004817,-14.7800777551102,-1.92479779472667,-8.50447544299529,-0.0341676659882069,-0.0136795397847891,0.139714986085892
-6.08497679004817,-14.7800777551102,-1.92479779472667,-8.50447544299529,-0.0340624712407589,-0.0139582343399525,0.139946207404137
-6.08497679004817,-14.7800777551102,-1.92479779472667,-8.50447544299529,-0.0339569486677647,-0.0142374970018864,0.14017753303051
-6.08497679004817,-14.7800777551102,-1.92479779472667,-8.50447544299529,-0.0338510982692242,-0.0145173268392682,0.140408962965012
-6.08497679004817,-14.7800777551102,-1.92479779472667,-8.50447544299529,-0.0337449200451374,-0.0147977229207754,0.140640497207642
-6.08497679004817,-14.7800777551102,-1.92479779472667,-8.50447544299529,-0.0336384139955044,-0.015078685246408,0.140872120857239
-6.08497679004817,-14.7800777551102,-1.92479779472667,-8.50447544299529,-0.0335279516875744,-0.0153689328581095,0.141075506806374
-6.08497679004817,-14.7800777551102,-1.92479779472667,-8.50447544299529,-0.0334098972380161,-0.0156771838665009,0.141222327947617
-6.08497679004817,-14.7800777551102,-1.92479779472667,-8.50447544299529,-0.0332842506468296,-0.0160034392029047,0.141312569379807
-6.08497679004817,-14.7800777551102,-1.92479779472667,-8.50447544299529,-0.0331510119140148,-0.0163476970046759,0.141346231102943
-6.08497679004817,-14.7800777551102,-1.92479779472667,-8.50447544299529,-0.0330101810395718,-0.016728850081563,0.141296431422234
-6.08497679004817,-14.7800777551102,-1.92479779472667,-8.50447544299529,-0.0328617617487907,-0.0171657893806696,0.141136288642883
-6.08497679004817,-14.7800777551102,-1.92479779472667,-8.50447544299529,-0.0327057503163815,-0.0176585130393505,0.140865802764893
-6.08497679004817,-14.7800777551102,-1.92479779472667,-8.50447544299529,-0.0325421467423439,-0.0182070229202509,0.1404849588871
-6.08497679004817,-14.7800777551102,-1.92479779472667,-8.50447544299529,-0.0323709547519684,-0.0188113171607256,0.139993771910667
-6.08497679004817,-14.7800777551102,-1.92479779472667,-8.50447544299529,-0.0321994386613369,-0.0194016396999359,0.139408230781555
-6.08497679004817,-14.7800777551102,-1.92479779472667,-8.50447544299529,-0.0320348665118217,-0.0199082344770432,0.138744309544563
-6.08497679004817,-14.7800777551102,-1.92479779472667,-8.50447544299529,-0.0318772383034229,-0.0203311014920473,0.138002008199692
-6.08497679004817,-14.7800777551102,-1.92479779472667,-8.50447544299529,-0.0317265540361404,-0.0206702407449484,0.137181341648102
-6.08497679004817,-14.7800777551102,-1.92479779472667,-8.50447544299529,-0.0315828137099743,-0.0209256503731012,0.136282294988632
-6.08497679004817,-14.7800777551102,-1.92479779472667,-8.50447544299529,-0.0314481966197491,-0.0211423803120852,0.13531868159771
-6.08497679004817,-14.7800777551102,-1.92479779472667,-8.50447544299529,-0.0313248857855797,-0.0213654823601246,0.1343042999506
-6.08497679004817,-14.7800777551102,-1.92479779472667,-8.50447544299529,-0.0312128774821758,-0.0215949546545744,0.133239164948463
-6.08497679004817,-14.7800777551102,-1.92479779472667,-8.50447544299529,-0.0311121754348278,-0.0218307971954346,0.13212326169014
-6.08497679004817,-14.7800777551102,-1.92479779472667,-8.50447544299529,-0.0310227777808905,-0.02207300812006,0.130956590175629
-6.08497679004817,-14.7800777551102,-1.92479779472667,-8.50447544299529,-0.0309679377824068,-0.0223034229129553,0.129769667983055
-6.08497679004817,-14.7800777551102,-1.92479779472667,-8.50447544299529,-0.0309709068387747,-0.0225038751959801,0.128593027591705
-6.08497679004817,-14.7800777551102,-1.92479779472667,-8.50447544299529,-0.0310353189706802,-0.0226656440645456,0.127454996109009
-6.08497679004817,-14.7800777551102,-1.92479779472667,-8.50447544299529,-0.0311648081988096,-0.0227800104767084,0.126383915543556
-6.08497679004817,-14.7800777551102,-1.92479779472667,-8.50447544299529,-0.0313593745231628,-0.0228469744324684,0.125379785895348
-6.08497679004817,-14.7800777551102,-1.92479779472667,-8.50447544299529,-0.0316386371850967,-0.0228229369968176,0.124423705041409
-6.08497679004817,-14.7800777551102,-1.92479779472667,-8.50447544299529,-0.0320222117006779,-0.0226454101502895,0.1235236749053
-6.08497679004817,-14.7800777551102,-1.92479779472667,-8.50447544299529,-0.0325101017951965,-0.0222954992204905,0.122706577181816
-6.08497679004817,-14.7800777551102,-1.92479779472667,-8.50447544299529,-0.0331023074686527,-0.0217732042074203,0.121972411870956
-6.08497679004817,-14.7800777551102,-1.92479779472667,-8.50447544299529,-0.0337988287210464,-0.0210785251110792,0.121321178972721
-6.08497679004817,-14.7800777551102,-1.92479779472667,-8.50447544299529,-0.0345633365213871,-0.0202536061406136,0.120765961706638
-6.08497679004817,-14.7800777551102,-1.92479779472667,-8.50447544299529,-0.0353522300720215,-0.0194103457033634,0.120303846895695
-6.08497679004817,-14.7800777551102,-1.92479779472667,-8.50447544299529,-0.0361582487821579,-0.0186184979975224,0.11991885304451
-6.08497679004817,-14.7800777551102,-1.92479779472667,-8.50447544299529,-0.036981388926506,-0.0178780630230904,0.119610980153084
-6.08497679004817,-14.7800777551102,-1.92479779472667,-8.50447544299529,-0.0378216505050659,-0.0171890407800674,0.119380228221416
-6.08497679004817,-14.7800777551102,-1.92479779472667,-8.50447544299529,-0.0386630520224571,-0.0165187306702137,0.119217149913311
-6.08497679004817,-14.7800777551102,-1.92479779472667,-8.50447544299529,-0.0394874252378941,-0.0157893858850002,0.119098499417305
-6.08497679004817,-14.7800777551102,-1.92479779472667,-8.50447544299529,-0.0402925908565521,-0.0149559555575252,0.119010463356972
-6.08497679004817,-14.7800777551102,-1.92479779472667,-8.50447544299529,-0.0410785488784313,-0.0140184387564659,0.118953041732311
-6.08497679004817,-14.7800777551102,-1.92479779472667,-8.50447544299529,-0.0418452993035316,-0.0129768345504999,0.118926241993904
-6.08497679004817,-14.7800777551102,-1.92479779472667,-8.50447544299529,-0.0426095575094223,-0.0119176106527448,0.118947491049767
-6.08497679004817,-14.7800777551102,-1.92479779472667,-8.50447544299529,-0.0433647818863392,-0.0109454002231359,0.119003720581532
-6.08497679004817,-14.7800777551102,-1.92479779472667,-8.50447544299529,-0.0440877191722393,-0.0100783677771688,0.119064405560493
-6.08497679004817,-14.7800777551102,-1.92479779472667,-8.50447544299529,-0.0447783730924129,-0.00931651331484318,0.119129553437233
-6.08497679004817,-14.7800777551102,-1.92479779472667,-8.50447544299529,-0.0454367436468601,-0.00865983590483665,0.119199156761169
-6.08497679004817,-14.7800777551102,-1.92479779472667,-8.50447544299529,-0.0460577420890331,-0.00806619133800268,0.119260862469673
-6.08497679004817,-14.7800777551102,-1.92479779472667,-8.50447544299529,-0.0466166660189629,-0.00753703154623508,0.119321212172508
-6.08497679004817,-14.7800777551102,-1.92479779472667,-8.50447544299529,-0.0470938980579376,-0.00711595406755805,0.119399100542068
-6.08497679004817,-14.7800777551102,-1.92479779472667,-8.50447544299529,-0.0474894344806671,-0.00680295843631029,0.119494527578354
-6.08497679004817,-14.7800777551102,-1.92479779472667,-8.50447544299529,-0.0478032790124416,-0.00659804418683052,0.119607493281364
-6.08497679004817,-14.7800777551102,-1.92479779472667,-8.50447544299529,-0.0480412431061268,-0.00655788648873568,0.119732178747654
-6.08497679004817,-14.7800777551102,-1.92479779472667,-8.50447544299529,-0.0482454709708691,-0.00669701769948006,0.119849696755409
-6.08497679004817,-14.7800777551102,-1.92479779472667,-8.50447544299529,-0.0484522953629494,-0.00697329360991716,0.119946964085102
-6.08497679004817,-14.7800777551102,-1.92479779472667,-8.50447544299529,-0.0486617162823677,-0.00738671328872442,0.120023988187313
-6.08497679004817,-14.7800777551102,-1.92479779472667,-8.50447544299529,-0.0488737337291241,-0.00793727580457926,0.120080761611462
-6.08497679004817,-14.7800777551102,-1.92479779472667,-8.50447544299529,-0.0491014271974564,-0.00860027689486742,0.120117291808128
-6.08497679004817,-14.7800777551102,-1.92479779472667,-8.50447544299529,-0.0493738614022732,-0.00938370730727911,0.12014301866293
-6.08497679004817,-14.7800777551102,-1.92479779472667,-8.50447544299529,-0.0497070215642452,-0.0103202657774091,0.120167389512062
-6.08497679004817,-14.7800777551102,-1.92479779472667,-8.50447544299529,-0.0501009114086628,-0.0114099513739347,0.120190404355526
-6.08497679004817,-14.7800777551102,-1.92479779472667,-8.50447544299529,-0.0505555272102356,-0.0126527631655335,0.120212063193321
-6.08497679004817,-14.7800777551102,-1.92479779472667,-8.50447544299529,-0.051057793200016,-0.0140617806464434,0.120222195982933
-6.08497679004817,-14.7800777551102,-1.92479779472667,-8.50447544299529,-0.051577914506197,-0.0155636137351394,0.120193183422089
-6.08497679004817,-14.7800777551102,-1.92479779472667,-8.50447544299529,-0.0520991832017899,-0.017071794718504,0.120107591152191
-6.08497679004817,-14.7800777551102,-1.92479779472667,-8.50447544299529,-0.0526215955615044,-0.0185863226652145,0.119965419173241
-6.08497679004817,-14.7800777551102,-1.92479779472667,-8.50447544299529,-0.0531451553106308,-0.0201071985065937,0.119766674935818
-6.08497679004817,-14.7800777551102,-1.92479779472667,-8.50447544299529,-0.0536923855543137,-0.0215864628553391,0.119480833411217
-6.08497679004817,-14.7800777551102,-1.92479779472667,-8.50447544299529,-0.0542909018695354,-0.0230183023959398,0.119089722633362
-6.08497679004817,-14.7800777551102,-1.92479779472667,-8.50447544299529,-0.0549457855522633,-0.0244448613375425,0.118605703115463
-6.08497679004817,-14.7800777551102,-1.92479779472667,-8.50447544299529,-0.0556570403277874,-0.0258661396801472,0.118028774857521
-6.08497679004817,-14.7800777551102,-1.92479779472667,-8.50447544299529,-0.0564246661961079,-0.0272821355611086,0.117358937859535
-6.08497679004817,-14.7800777551102,-1.92479779472667,-8.50447544299529,-0.0572232306003571,-0.0286972094327211,0.116583839058876
-6.08497679004817,-14.7800777551102,-1.92479779472667,-8.50447544299529,-0.0580214932560921,-0.0300590433180332,0.115696936845779
-6.08497679004817,-14.7800777551102,-1.92479779472667,-8.50447544299529,-0.0588136352598667,-0.031310960650444,0.114704042673111
-6.08497679004817,-14.7800777551102,-1.92479779472667,-8.50447544299529,-0.0595996603369713,-0.0324529632925987,0.113605156540871
-6.08497679004817,-14.7800777551102,-1.92479779472667,-8.50447544299529,-0.0603795684874058,-0.033485047519207,0.112400285899639
-6.08497679004817,-14.7800777551102,-1.92479779472667,-8.50447544299529,-0.0611446425318718,-0.0343912281095982,0.111079975962639
-6.08497679004817,-14.7800777551102,-1.92479779472667,-8.50447544299529,-0.0618730820715427,-0.0351802259683609,0.109634786844254
-6.08497679004817,-14.7800777551102,-1.92479779472667,-8.50447544299529,-0.0625518038868904,-0.0358767434954643,0.108064711093903
-6.08497679004817,-14.7800777551102,-1.92479779472667,-8.50447544299529,-0.0631808191537857,-0.0364807806909084,0.106369756162167
-6.08497679004817,-14.7800777551102,-1.92479779472667,-8.50447544299529,-0.0637601166963577,-0.0369923375546932,0.104549914598465
-6.08497679004817,-14.7800777551102,-1.92479779472667,-8.50447544299529,-0.0642911568284035,-0.0373896136879921,0.102607369422913
-6.08497679004817,-14.7800777551102,-1.92479779472667,-8.50447544299529,-0.0647884681820869,-0.0376377291977406,0.10055448114872
-6.08497679004817,-14.7800777551102,-1.92479779472667,-8.50447544299529,-0.0652651339769363,-0.037723608314991,0.0984014123678207
-6.08497679004817,-14.7800777551102,-1.92479779472667,-8.50447544299529,-0.0657211542129517,-0.0376472473144531,0.0961481630802155
-6.08497679004817,-14.7800777551102,-1.92479779472667,-8.50447544299529,-0.0661565288901329,-0.0374086499214172,0.0937947407364845
-6.08497679004817,-14.7800777551102,-1.92479779472667,-8.50447544299529,-0.0665392875671387,-0.0369947329163551,0.0913687497377396
-6.08497679004817,-14.7800777551102,-1.92479779472667,-8.50447544299529,-0.0668149292469025,-0.0364403761923313,0.0889283269643784
-6.08497679004817,-14.7800777551102,-1.92479779472667,-8.50447544299529,-0.0669609308242798,-0.0357935316860676,0.0865039825439453
-6.08497679004817,-14.7800777551102,-1.92479779472667,-8.50447544299529,-0.0669772922992706,-0.0350542031228542,0.0840957164764404
-6.08497679004817,-14.7800777551102,-1.92479779472667,-8.50447544299529,-0.0668640211224556,-0.034222386777401,0.0817035362124443
-6.08497679004817,-14.7800777551102,-1.92479779472667,-8.50447544299529,-0.0666240155696869,-0.0333242453634739,0.0793594047427177
-6.08497679004817,-14.7800777551102,-1.92479779472667,-8.50447544299529,-0.0662856176495552,-0.032381571829319,0.0771076530218124
-6.08497679004817,-14.7800777551102,-1.92479779472667,-8.50447544299529,-0.0658742561936378,-0.0313900075852871,0.0749606266617775
-6.08497679004817,-14.7800777551102,-1.92479779472667,-8.50447544299529,-0.0653899386525154,-0.0303495544940233,0.0729183331131935
-6.08497679004817,-14.7800777551102,-1.92479779472667,-8.50447544299529,-0.0648326575756073,-0.0292602106928825,0.0709807649254799
-6.08497679004817,-14.7800777551102,-1.92479779472667,-8.50447544299529,-0.0642271265387535,-0.0281328745186329,0.0691217705607414
-6.08497679004817,-14.7800777551102,-1.92479779472667,-8.50447544299529,-0.0636067613959312,-0.0269944295287132,0.0673246309161186
-6.08497679004817,-14.7800777551102,-1.92479779472667,-8.50447544299529,-0.0629802867770195,-0.0258608628064394,0.065598800778389
-6.08497679004817,-14.7800777551102,-1.92479779472667,-8.50447544299529,-0.0623477026820183,-0.0247321724891663,0.0639442726969719
-6.08497679004817,-14.7800777551102,-1.92479779472667,-8.50447544299529,-0.0617090091109276,-0.0236083585768938,0.0623610466718674
-6.08497679004817,-14.7800777551102,-1.92479779472667,-8.50447544299529,-0.0610554851591587,-0.0224734339863062,0.060901440680027
-6.08497679004817,-14.7800777551102,-1.92479779472667,-8.50447544299529,-0.0603769607841969,-0.0213332120329142,0.0596155934035778
-6.08497679004817,-14.7800777551102,-1.92479779472667,-8.50447544299529,-0.0596719831228256,-0.0202094912528992,0.0585013218224049
-6.08497679004817,-14.7800777551102,-1.92479779472667,-8.50447544299529,-0.058940552175045,-0.0191022716462612,0.0575586296617985
-6.08497679004817,-14.7800777551102,-1.92479779472667,-8.50447544299529,-0.058182667940855,-0.0180115513503551,0.0567875131964684
-6.08497679004817,-14.7800777551102,-1.92479779472667,-8.50447544299529,-0.0573903359472752,-0.0169925540685654,0.0561916083097458
-6.08497679004817,-14.7800777551102,-1.92479779472667,-8.50447544299529,-0.0565875358879566,-0.016113581135869,0.0557469353079796
-6.08497679004817,-14.7800777551102,-1.92479779472667,-8.50447544299529,-0.0558062419295311,-0.0153877111151814,0.0554258823394775
-6.08497679004817,-14.7800777551102,-1.92479779472667,-8.50447544299529,-0.0550464503467083,-0.0148149430751801,0.0552284494042397
-6.08497679004817,-14.7800777551102,-1.92479779472667,-8.50447544299529,-0.0543081648647785,-0.0143952770158648,0.0551546365022659
-6.08497679004817,-14.7800777551102,-1.92479779472667,-8.50447544299529,-0.05359211191535,-0.0141316195949912,0.0552088059484959
-6.08497679004817,-14.7800777551102,-1.92479779472667,-8.50447544299529,-0.0528961084783077,-0.0140007175505161,0.055363342165947
-6.08497679004817,-14.7800777551102,-1.92479779472667,-8.50447544299529,-0.0522172525525093,-0.0139764128252864,0.0555862747132778
-6.08497679004817,-14.7800777551102,-1.92479779472667,-8.50447544299529,-0.0515555441379547,-0.0140587044879794,0.0558776035904884
-6.08497679004817,-14.7800777551102,-1.92479779472667,-8.50447544299529,-0.0509109795093536,-0.0142475916072726,0.0562373287975788
-6.08497679004817,-14.7800777551102,-1.92479779472667,-8.50447544299529,-0.0502733886241913,-0.014544527977705,0.056722853332758
-6.08497679004817,-14.7800777551102,-1.92479779472667,-8.50447544299529,-0.0496078953146935,-0.0149400662630796,0.0574177391827106
-6.08497679004817,-14.7800777551102,-1.92479779472667,-8.50447544299529,-0.0488897934556007,-0.0154233062639832,0.0583481453359127
-6.08497679004817,-14.7800777551102,-1.92479779472667,-8.50447544299529,-0.0481190830469131,-0.0159942489117384,0.0595140717923641
-6.08497679004817,-14.7800777551102,-1.92479779472667,-8.50447544299529,-0.047295767813921,-0.0166528932750225,0.0609155148267746
-6.08497679004817,-14.7800777551102,-1.92479779472667,-8.50447544299529,-0.0464176647365093,-0.0173607263714075,0.0625132396817207
-6.08497679004817,-14.7800777551102,-1.92479779472667,-8.50447544299529,-0.0454913154244423,-0.0180952250957489,0.0642156898975372
-6.08497679004817,-14.7800777551102,-1.92479779472667,-8.50447544299529,-0.0445254370570183,-0.0188723728060722,0.0659705549478531
-6.08497679004817,-14.7800777551102,-1.92479779472667,-8.50447544299529,-0.0435200333595276,-0.0196921695023775,0.0677778273820877
-6.08497679004817,-14.7800777551102,-1.92479779472667,-8.50447544299529,-0.0424751006066799,-0.0205546151846647,0.0696375146508217
-6.08497679004817,-14.7800777551102,-1.92479779472667,-8.50447544299529,-0.0414218865334988,-0.021480780094862,0.0715532451868057
-6.08497679004817,-14.7800777551102,-1.92479779472667,-8.50447544299529,-0.0403996258974075,-0.0224365144968033,0.0735250189900398
-6.08497679004817,-14.7800777551102,-1.92479779472667,-8.50447544299529,-0.039416316896677,-0.0233665928244591,0.0755492001771927
-6.08497679004817,-14.7800777551102,-1.92479779472667,-8.50447544299529,-0.0384719558060169,-0.0242710150778294,0.0776257961988449
-6.08497679004817,-14.7800777551102,-1.92479779472667,-8.50447544299529,-0.0375665426254272,-0.0251497812569141,0.0797547996044159
-6.08497679004817,-14.7800777551102,-1.92479779472667,-8.50447544299529,-0.0366913601756096,-0.025984724983573,0.081899881362915
-6.08497679004817,-14.7800777551102,-1.92479779472667,-8.50447544299529,-0.0358369648456573,-0.0267547741532326,0.0840203538537025
-6.08497679004817,-14.7800777551102,-1.92479779472667,-8.50447544299529,-0.035002626478672,-0.027457021176815,0.0861118510365486
-6.08497679004817,-14.7800777551102,-1.92479779472667,-8.50447544299529,-0.0341883450746536,-0.0280914679169655,0.0881743803620338
-6.08497679004817,-14.7800777551102,-1.92479779472667,-8.50447544299529,-0.0333941243588924,-0.0286581106483936,0.0902079343795776
-6.08497679004817,-14.7800777551102,-1.92479779472667,-8.50447544299529,-0.0326228700578213,-0.0291017275303602,0.092160202562809
-6.08497679004817,-14.7800777551102,-1.92479779472667,-8.50447544299529,-0.0318876579403877,-0.0293656419962645,0.093921460211277
-6.08497679004817,-14.7800777551102,-1.92479779472667,-8.50447544299529,-0.0311986654996872,-0.0294483993202448,0.095434308052063
-6.08497679004817,-14.7800777551102,-1.92479779472667,-8.50447544299529,-0.0305558908730745,-0.0293499995023012,0.0966987460851669
-6.08497679004817,-14.7800777551102,-1.92479779472667,-8.50447544299529,-0.0299593340605497,-0.0290704425424337,0.0977147743105888
-6.08497679004817,-14.7800777551102,-1.92479779472667,-8.50447544299529,-0.0294387880712748,-0.0286039151251316,0.0984911099076271
-6.08497679004817,-14.7800777551102,-1.92479779472667,-8.50447544299529,-0.029026223346591,-0.0279831122606993,0.0990757122635841
-6.08497679004817,-14.7800777551102,-1.92479779472667,-8.50447544299529,-0.0287238210439682,-0.0272465478628874,0.0995078161358833
-6.08497679004817,-14.7800777551102,-1.92479779472667,-8.50447544299529,-0.0285315811634064,-0.0263942182064056,0.0997874215245247
-6.08497679004817,-14.7800777551102,-1.92479779472667,-8.50447544299529,-0.0284495037049055,-0.0254261251538992,0.0999145284295082
-6.08497679004817,-14.7800777551102,-1.92479779472667,-8.50447544299529,-0.0284659620374441,-0.0243132021278143,0.0998913198709488
-6.08497679004817,-14.7800777551102,-1.92479779472667,-8.50447544299529,-0.0285380873829126,-0.0230053123086691,0.09971634298563
-6.08497679004817,-14.7800777551102,-1.92479779472667,-8.50447544299529,-0.0286346357315779,-0.0214813835918903,0.0993859618902206
-6.08497679004817,-14.7800777551102,-1.92479779472667,-8.50447544299529,-0.0287556052207947,-0.019741415977478,0.0989001765847206
-6.08497679004817,-14.7800777551102,-1.92479779472667,-8.50447544299529,-0.0289009977132082,-0.017785407602787,0.0982589870691299
-6.08497679004817,-14.7800777551102,-1.92479779472667,-8.50447544299529,-0.0290628205984831,-0.0156387910246849,0.097478374838829
-6.08497679004817,-14.7800777551102,-1.92479779472667,-8.50447544299529,-0.0292418003082275,-0.0133451614528894,0.0966106653213501
-6.08497679004817,-14.7800777551102,-1.92479779472667,-8.50447544299529,-0.0294466577470303,-0.0109226852655411,0.0956921800971031
-6.08497679004817,-14.7800777551102,-1.92479779472667,-8.50447544299529,-0.0296773929148912,-0.00837136059999466,0.0947229266166687
-6.08497679004817,-14.7800777551102,-1.92479779472667,-8.50447544299529,-0.0299340039491653,-0.00569118838757277,0.0937029048800468
-6.08497679004817,-14.7800777551102,-1.92479779472667,-8.50447544299529,-0.0302223060280085,-0.00289815315045416,0.0926677137613297
-6.08497679004817,-14.7800777551102,-1.92479779472667,-8.50447544299529,-0.0305452048778534,-6.34633470326662e-05,0.0917052775621414
-6.08497679004817,-14.7800777551102,-1.92479779472667,-8.50447544299529,-0.0308997947722673,0.0027576582506299,0.0908679142594337
-6.08497679004817,-14.7800777551102,-1.92479779472667,-8.50447544299529,-0.0312860757112503,0.00556521257385612,0.090155616402626
-6.08497679004817,-14.7800777551102,-1.92479779472667,-8.50447544299529,-0.0317040495574474,0.00835919938981533,0.0895683914422989
-6.08497679004817,-14.7800777551102,-1.92479779472667,-8.50447544299529,-0.03215516731143,0.0111127346754074,0.0891004279255867
-6.08497679004817,-14.7800777551102,-1.92479779472667,-8.50447544299529,-0.0326110944151878,0.0137931210920215,0.0887371897697449
-6.08497679004817,-14.7800777551102,-1.92479779472667,-8.50447544299529,-0.0330420359969139,0.0163945462554693,0.0884699523448944
-6.08497679004817,-14.7800777551102,-1.92479779472667,-8.50447544299529,-0.0334479957818985,0.0189170092344284,0.0882987231016159
-6.16029594035472,-14.8273887185717,-1.92070392437316,-8.36999776747766,-0.0338289737701416,0.0213605128228664,0.0882234945893288
-6.23125778444519,-14.8180338765258,-1.9454770885636,-8.18917199328361,-0.0341668017208576,0.0236996244639158,0.0882333740592003
-6.29770670424043,-14.7664288872073,-1.99413116314947,-8.00140330283666,-0.0344549417495728,0.0258798487484455,0.0883152857422829
-6.35466292120778,-14.6945806331337,-2.05926569018407,-7.84603488823661,-0.0347050204873085,0.0278721209615469,0.088467039167881
-6.39870283760603,-14.625032750055,-2.1320106172348,-7.75238817258727,-0.0349170379340649,0.02967644110322,0.0886886417865753
-6.42095622292388,-14.5779901632096,-2.20491300083759,-7.7338117389225,-0.0350909940898418,0.0312928110361099,0.0889800935983658
-6.41426464552061,-14.5655298203206,-2.2714646368407,-7.78528437102367,-0.0352116301655769,0.0327408462762833,0.0893283113837242
-6.3724033822304,-14.5913323149799,-2.32757165489065,-7.88583267604346,-0.0352716818451881,0.0340656004846096,0.089704230427742
-6.29583928729068,-14.6495317011505,-2.37339151153949,-8.00516404914032,-0.0352791398763657,0.0352925062179565,0.0900918692350388
-6.18643977765121,-14.7275909569103,-2.41091865644661,-8.11145679082175,-0.0352340079843998,0.0364215634763241,0.0904912203550339
-6.05494250077304,-14.8091774481955,-2.44351216272258,-8.17999742537799,-0.0351362824440002,0.0374527759850025,0.090902291238308
-5.915041847621,-14.8781118990089,-2.47631561106797,-8.19884248377874,-0.0349765196442604,0.0383396372199059,0.0913723111152649
-5.78214400803052,-14.9223940406605,-2.51279304562804,-8.17096750156096,-0.0347394607961178,0.0390516296029091,0.0919129028916359
-5.67352258878677,-14.9352761182318,-2.5550438870969,-8.11255195320688,-0.0344192907214165,0.0396047383546829,0.0924884676933289
-5.60116018198399,-14.9167964712396,-2.60207091064484,-8.04797869936659,-0.0340160131454468,0.0399989634752274,0.0930989980697632
-5.57174836502544,-14.8734728175026,-2.65114486936954,-8.0020025426323,-0.0335296280682087,0.0402343086898327,0.0937444940209389
-5.58388657519881,-14.8158101845641,-2.6954951315325,-7.99346854140477,-0.0329819321632385,0.0403151325881481,0.0943958982825279
-5.63150570741742,-14.7564989524127,-2.72798366677377,-8.0302494667922,-0.0323932729661465,0.0402726791799068,0.0950299501419067
-5.70231193342874,-14.7072710131221,-2.74162990128545,-8.10715879504614,-0.0317621938884258,0.0401338338851929,0.0956524685025215
