EOG_left_h,EOG_right_h,EOG_left_v,EOG_right_v,head_horizontal,head_frontal,head_sagittal
218.63836476403773,-26.18716086730705,-2.8830121772894532,55.56221083351754,-2.7212590063124267e-06,1.4757203556623717e-06,1.1064378711030703e-06
218.63475843381295,-26.185411701539245,-2.882969833619832,55.561993501654726,-1.1891674576044718e-05,-8.866156863262911e-06,-2.1799877805340174e-05
218.64480100399183,-26.189534400140893,-2.8838464983823675,55.561144748532215,-1.66448559109677e-05,-1.5978133140189366e-05,-3.671890975554318e-05
218.664869060607,-26.19804633829861,-2.885320930346407,55.55998026717242,-1.5068786481419143e-05,-1.7060560403919463e-05,-3.775578998826016e-05
218.68740947148822,-26.207746307756928,-2.88683567415372,55.55894315916058,-7.656269253157096e-06,-1.158701784318128e-05,-2.4259402437823503e-05
218.7037793703212,-26.214917212461195,-2.8878076388978124,55.55843545992812,2.841448816464044e-06,-1.5483876177906321e-06,-1.1683306154932748e-06
218.70755759866452,-26.216749387490147,-2.8878523719421825,55.558662440059166,1.2434166185439003e-05,9.268881189468023e-06,2.2791341625380395e-05
218.69705983162643,-26.212439954215803,-2.886935835179157,55.55954992433263,1.7408209139819727e-05,1.6709640498588502e-05,3.8400676127341335e-05
218.67607356787838,-26.203538623365738,-2.8853938719654657,55.56076781858373,1.5762786312874187e-05,1.78448649950601e-05,3.949216783113372e-05
218.65249745274448,-26.193393013978373,-2.8838094648884134,55.56185270048782,8.012173992473706e-06,1.2122784963323666e-05,2.5382136435486303e-05
218.6353714110863,-26.18589096425847,-2.882792516245752,55.56238401917798,-2.966938602101906e-06,1.624616594548809e-06,1.2335740711241742e-06
218.6314131024732,-26.183971844999597,-2.8827452636914552,55.56214696296598,-1.300140399382975e-05,-9.68989551511151e-06,-2.3827891703361758e-05
218.6423866947558,-26.188476469076583,-2.883703485661316,55.56121898025704,-1.820656923988805e-05,-1.7474635979858304e-05,-4.0159465762640295e-05
218.66433317575346,-26.197785005103356,-2.8853160730199674,55.55994522325051,-1.6488747013265693e-05,-1.8665223964763092e-05,-4.130839773987803e-05
218.68899258254143,-26.208396727360487,-2.8869733470513825,55.55881036688602,-8.384619880433494e-06,-1.2683322922292473e-05,-2.655682550872733e-05
218.70690969133747,-26.216245212890342,-2.8880373612911914,55.558254330137444,3.0979616717268646e-06,-1.7045811512465405e-06,-1.3023454366365794e-06
218.7110566513248,-26.218255397687486,-2.8880872704030383,55.558501909188266,1.3594516728447058e-05,1.0130030362786083e-05,2.4911578044487973e-05
218.6995856707807,-26.213546743836453,-2.887085467573894,55.55947223825143,1.9041541537225635e-05,1.8274652584293144e-05,4.1998806091742265e-05
218.67663504045444,-26.203812375372294,-2.885399021528441,55.56080442023975,1.7248140407197823e-05,1.9523294658763273e-05,4.32081517713035e-05
218.65084256820606,-26.192713126804698,-2.8836655295328635,55.56199155299048,8.774375542812679e-06,1.326977688018443e-05,2.7785873655798916e-05
218.6320978550185,-26.184502208662266,-2.8825522716735508,55.56257345748611,-3.2347615849790273e-06,1.788463609971194e-06,1.3748311181333852e-06
218.6277532651322,-26.182396641863427,-2.882499561683704,55.56231488905556,-1.4214684595992342e-05,-1.0590153961881345e-05,-2.6044543852285096e-05
218.6397441739238,-26.187318564629997,-2.883546927218992,55.5613002814065,-1.991480497103184e-05,-1.9111293485646413e-05,-4.392238608311515e-05
218.66374489554508,-26.19749824483597,-2.8853106146263654,55.55990699469463,-1.8042506094651946e-05,-2.0420810604398713e-05,-4.519527083725202e-05
218.69072249391516,-26.209107416858302,-2.8871238296957022,55.55866517760586,-9.18224531487341e-06,-1.3883344933335522e-05,-2.9071796098331195e-05
218.7103330361754,-26.21769750301973,-2.888288609977262,55.55805620221129,3.3775926021316845e-06,-1.8764551596087272e-06,-1.4512272010959261e-06
218.71488466124842,-26.21990297267085,-2.8883442728173065,55.558326247220236,1.4863141630341908e-05,1.107117396024071e-05,2.7229029765055146e-05
218.702350263,-26.21475812356438,-2.8872492726159074,55.5593871538463,2.082811546908652e-05,1.998623524318298e-05,4.593406364067041e-05
218.67725140628258,-26.204112761296514,-2.8854048062544218,55.560844347928565,1.887345457178968e-05,2.1359585012230963e-05,4.727377246885677e-05
218.6490342292092,-26.19197023978348,-2.8835082018157827,55.56214336821644,9.609070900085488e-06,1.4525280561140208e-05,3.041722442667668e-05
218.62851786784213,-26.182983477492535,-2.8822895148660566,55.56278067361073,-3.52672015325054e-06,1.968756285687205e-06,1.531739946223681e-06
218.62374935527126,-26.180673370082893,-2.8822307391535027,55.562498643253505,-1.5541178147307784e-05,-1.1574039213503929e-05,-2.84673782848767e-05
218.63685187166837,-26.186051240168915,-2.8833755401909267,55.5613893250778,-2.1783309477953902e-05,-2.090123116074986e-05,-4.803787333976718e-05
218.66309910527147,-26.197183586588785,-2.8853044851102334,55.55986529243654,-1.9742670495450277e-05,-2.234151443860747e-05,-4.94478589378017e-05
218.6926128154419,-26.20988395978408,-2.887288313811637,55.55850643407108,-1.0055733105882814e-05,-1.5196895185957743e-05,-3.1824911983262026e-05
218.71407683282715,-26.21928571469374,-2.888563401997116,55.55783948102619,3.6824213278764873e-06,-2.065577220998702e-06,-1.616586310398953e-06
218.71907255345118,-26.22170541894922,-2.8886254590734257,55.55813402802657,1.625014331133734e-05,1.209974165566063e-05,2.976203840790275e-05
218.70537617437728,-26.216083976239553,-2.887428592537054,55.55929396671159,2.278230765505232e-05,2.1858114799594032e-05,5.023803451745223e-05
218.67792802355868,-26.20444236918916,-2.8854113000253774,55.56088790353746,2.0651916097958146e-05,2.336858261656318e-05,5.172192575099438e-05
218.64705820914466,-26.19115851652959,-2.8833362358170307,55.56230935621984,1.052315366003162e-05,1.5899560851331805e-05,3.3297739494955156e-05
218.62460276666374,-26.181322606811904,-2.882002136402358,55.56300733583838,-3.844985386127457e-06,2.1671384180014783e-06,1.705994494038584e-06
218.6193690269598,-26.178788111838266,-2.881936620561799,55.56269971737913,-1.6991447819255654e-05,-1.2649318254500021e-05,-3.1115570465103144e-05
218.6336861796182,-26.184664156504688,-2.8831879202308084,55.56148684844079,-2.38271187300114e-05,-2.2858803651964126e-05,-5.253895973315581e-05
218.66239019167435,-26.196838319620056,-2.8852976065593188,55.55981980120201,-2.1603034759161196e-05,-2.4442864462798173e-05,-5.4100570535821516e-05
218.69467841845258,-26.210732456822093,-2.887468101978791,55.558332871013036,-1.101229711135366e-05,-1.663471302399118e-05,-3.483872096596566e-05
218.7181710764996,-26.221022568281676,-2.8888639433822636,55.55760242177696,4.014714292153816e-06,-2.273671044052468e-06,-1.8002045161574643e-06
218.7236541600628,-26.223677293735868,-2.8889331047596976,55.55792369107144,1.7766566706387352e-05,1.3223853055809102e-05,3.2530651183015e-05
218.70868810369976,-26.217535118469947,-2.887624896672291,55.55919190538941,2.491984354307836e-05,2.3905302982854794e-05,5.4945263616805736e-05
218.67867077272987,-26.204804038293226,-2.8854185849981837,55.560935416320376,2.2597954742939e-05,2.5566530268823933e-05,5.658860233394448e-05
218.6448989627489,-26.19027158009358,-2.8831482697212385,55.56249084000292,1.1524172818721092e-05,1.7403853525351937e-05,3.645100984332793e-05
218.6203211839252,-26.179506294366803,-2.8816878292158306,55.56325526900234,-4.191923270922762e-06,2.3854175005706736e-06,1.8994688185342291e-06
218.61457689358596,-26.17672564114975,-2.881614825670156,55.562919743849946,-1.8577042280638187e-05,-1.382447932034661e-05,-3.401007897449901e-05
218.6302212582111,-26.18314599756647,-2.8829825300078875,55.561593658836,-2.6062679268691265e-05,-2.499970984758936e-05,-5.746177212209924e-05
218.6616119944171,-26.196459470100358,-2.8852898923466155,55.55977017713845,-2.3638693105753295e-05,-2.674185008474249e-05,-5.919105132241946e-05
218.69693555267813,-26.211659573694646,-2.887664617941736,55.558143105061774,-1.2059837032421925e-05,-1.8208553598505686e-05,-3.8137905467575326e-05
218.72264856988684,-26.22292197453794,-2.889192646861586,55.55734311593167,4.376941389349181e-06,-2.5026319672847547e-06,-2.0040529004397353e-06
218.72866649359761,-26.225834522499454,-2.8892696995771425,55.557693528744764,1.9424487190370673e-05,1.4452381757802616e-05,3.555677946995333e-05
218.71231308398959,-26.219123388850583,-2.8878397934944307,55.559080124988085,2.725792383270884e-05,2.614421729328861e-05,6.009353220348365e-05
218.67948610732643,-26.205200883397687,-2.885426752507236,55.56098724537512,2.472735978516189e-05,2.7971198304511935e-05,6.191317898178869e-05
218.6425395039058,-26.189302462906603,-2.8829428150387324,55.562689266057845,1.2620395072184996e-05,1.905045711695526e-05,3.990285982179503e-05
218.6156388161389,-26.177519993068138,-2.8813440700762856,55.56352646917212,-4.570112162834889e-06,2.6255809727738763e-06,2.1142359854605026e-06
218.60933424203066,-26.174469300926326,-2.8812627502812074,55.5631605089319,-2.031058763217427e-05,-1.5108798862144647e-05,-3.7173811299912415e-05
218.62642882584592,-26.181484378109104,-2.8827576866154274,55.561710640452475,-2.8507980532176094e-05,-2.7341118752641758e-05,-6.2845821936247e-05
218.6607577528392,-26.196043775606547,-2.885281246180705,55.5597160452277,-2.5866161876581735e-05,-2.9257058461958573e-05,-6.476048873169401e-05
218.69940197398373,-26.212672593482587,-2.887879417879166,55.557935623722955,-1.3207003606352764e-05,-1.9931283941648435e-05,-4.174948459286482e-05
218.7275451859314,-26.2249991459933,-2.8895521512272317,55.55705947586847,4.7717941883243224e-06,-2.75454399256883e-06,-2.230311722026661e-06
218.73415004591394,-26.228194527563026,-2.889637967484706,55.55744167250184,2.1237106704908784e-05,1.5795025352950883e-05,3.8864372140453814e-05
218.71628070309092,-26.220861744516604,-2.8880750437882945,55.55895770019367,2.9815362866911708e-05,2.859281263878097e-05,6.572416110000744e-05
218.68038110973671,-26.205636321550124,-2.8854359040636055,55.56104378234498,2.705740810696821e-05,3.0602028247221656e-05,6.773873705550786e-05
218.63996127212627,-26.188243552091677,-2.8827182448240443,55.56290621589248,1.3820873036898044e-05,2.0852833433163032e-05,4.368155855930979e-05
218.61051814910562,-26.17534779450505,-2.8809680993372098,55.563823119720894,-4.982361805033227e-06,2.8898140761414745e-06,2.3525889193330392e-06
218.6035987199729,-26.172000868459307,-2.8808775451670856,55.563423967238236,-2.2205887916690475e-05,-1.6512414727539637e-05,-4.063180503335576e-05
218.62227792810913,-26.179665742702333,-2.8825115477870176,55.561838761641326,-3.118269959262922e-05,-2.990180715046342e-05,-6.873432224681977e-05
218.6598200475341,-26.195587657145644,-2.885271561054564,55.55965699646519,-2.830351351447712e-05,-3.200882475376158e-05,-7.085394513646564e-05
218.70209708393705,-26.213779473789607,-2.888114202720999,55.55770877332628,-1.4463269995199716e-05,-2.181698812621326e-05,-4.570303532088639e-05
218.73290015517605,-26.227270718769283,-2.8899453425148565,55.55674921807122,5.202205784056491e-06,-3.0316985041741574e-06,-2.4813923204273033e-06
218.74014911527385,-26.23077636878928,-2.8900408887397786,55.55716607769676,2.3218858851794266e-05,1.7262381928922765e-05,4.247960499349013e-05
218.72062334509943,-26.2227643668176,-2.888332575072117,55.55882361761675,3.261274000574913e-05,3.127072529718632e-05,7.188234227608824e-05
218.68136355240225,-26.206114101356278,-2.8854461524609354,55.56110545436454,2.9607004343592827e-05,3.3480289966528285e-05,7.411241102881652e-05
218.63714398665783,-26.18708652971216,-2.8824727807988397,55.563143418631924,1.5135519953719682e-05,2.2825717573978704e-05,4.7818051385698e-05
218.6049181574168,-26.172972301558936,-2.8805568987855663,55.56414760890064,-5.431734048114545e-06,3.18051947756798e-06,2.6170634143258387e-06
218.59732399380349,-26.16930040827456,-2.8804560930153844,55.563712257594304,-2.4278035004763608e-05,-1.804640613483837e-05,-4.441142591650357e-05
218.61773468519536,-26.177675255177647,-2.8822420968079356,55.561979082924765,-3.410835947052467e-05,-3.2702310154300666e-05,-7.517453453949151e-05
218.65879073624833,-26.195087188469216,-2.8852607180821686,55.55959258478394,-3.0970523165642884e-05,-3.5019396502373447e-05,-7.752072238859174e-05
218.7050420823072,-26.214988909198,-2.888370831610887,55.55746074584937,-1.5839009958962707e-05,-2.3881082370103926e-05,-5.003093463137867e-05
218.7387563800091,-26.229754885790562,-2.8903753771681817,55.55640984474847,5.671372422751858e-06,-3.336614839718797e-06,-2.75996128911178e-06
218.74671216414694,-26.233600897487868,-2.890481724012341,55.556864506986756,2.538552378935182e-05,1.886603367335676e-05,4.6431087800431845e-05
218.7253764546069,-26.224846776974807,-2.8886144973842667,55.55867676741056,3.567256519959124e-05,3.4199430358650133e-05,7.861750150018755e-05
218.6824419649619,-26.206638335116956,-2.8854576229992697,55.561172727271156,3.239683423507607e-05,3.6629253614299345e-05,8.108576978971956e-05
218.63406548707903,-26.185822307489026,-2.8822044792773616,55.563402764795555,1.6575191491350347e-05,2.498523835657908e-05,5.234621315764561e-05
218.59879397583413,-26.17037448909791,-2.8801071674164254,55.56450254906626,-5.921565420358462e-06,3.500338833662981e-06,2.910463528066351e-06
218.59045937438336,-26.166346111155136,-2.879994983206161,55.56402772039792,-2.6543528730266376e-05,-1.9722881070803167e-05,-4.854258429551259e-05
218.61276201546022,-26.175496677631436,-2.881947125998046,55.56213276576756,-3.730850229955861e-05,-3.576508585574358e-05,-8.221814797167748e-05
218.65766088355034,-26.194538062416562,-2.885248585211108,55.559522323700975,-3.388882909235865e-05,-3.831311347167038e-05,-8.48147606523996e-05
218.70826013369012,-26.216310399506263,-2.888651336620626,55.55718956451187,-1.7345583457901673e-05,-2.614044102609172e-05,-5.4768624548321366e-05
218.74516077831734,-26.23247154246225,-2.89084570737377,55.55603862372763,6.182777058444882e-06,-3.6720628957726505e-06,-3.0689671509865404e-06
218.75389221064435,-26.236690924787403,-2.890964040767824,55.556534512172476,2.7754353846050943e-05,2.0618638238000615e-05,5.0750090597110096e-05
218.73057882591345,-26.227125962664118,-2.888923120564547,55.5585159340921,3.9019460093797805e-05,3.7402413909973006e-05,8.598369496286957e-05
218.68362570792036,-26.207213534076757,-2.8854704548392727,55.561246109107216,3.544953242484308e-05,4.007437772907018e-05,8.871523381188615e-05
218.6307015591258,-26.184440955474933,-2.8819112157830924,55.56368632136031,1.8151775323886872e-05,2.7349050127836603e-05,5.730312556176338e-05
218.59209653991556,-26.167533551636552,-2.8796152949379987,55.5648907977034,-6.455491713663247e-06,3.8521764877601054e-06,3.235889602948942e-06
218.58294940762605,-26.16311411803499,-2.8794904842159044,55.56437291661523,-2.902040823182022e-05,-2.155507180110935e-05,-5.305797169734324e-05
218.60731933285294,-26.173112237997962,-2.8816242186309724,55.562301082182785,-4.080887873513181e-05,-3.91146953899158e-05,-8.992169415709988e-05
218.6564206836663,-26.19393555399901,-2.8852350157981492,55.5594456826603,-3.7082108197486576e-05,-4.191660439707006e-05,-9.279507475712464e-05
218.71177654957185,-26.217754324283113,-2.88895793883285,55.55689306802499,-1.8995430389906338e-05,-2.8613534486185588e-05,-5.9954902269515174e-05
218.7521646593008,-26.23544244597789,-2.8913601087693044,55.555632566462464,6.7402150131319055e-06,-4.0410879688361584e-06,-3.4116697928926427e-06
218.7617472567467,-26.240071405831408,-2.8914917421320823,55.556173414326935,3.034421085095967e-05,2.253402858362353e-05,5.54707910117155e-05
218.73627291956743,-26.229620516556956,-2.8892609731715106,55.55833978648964,4.268035612172182e-05,4.090536134131139e-05,9.40400430541361e-05
218.68492505347442,-26.207844647085587,-2.885484802500452,55.56132615393871,3.878986606584348e-05,4.3843515028784845e-05,9.706253157003856e-05
218.62702574438148,-26.182931624126034,-2.8815906682348835,55.56399634822979,1.9878289221147352e-05,2.99364770420544e-05,6.272938066390856e-05
218.5847721930074,-26.16442673674142,-2.8790773327944486,55.565315480429746,-7.037474764688487e-06,4.2392255099555015e-06,3.596769184510828e-06
218.57473342659583,-26.159578327341755,-2.8789385134252337,55.56475064856713,-3.172839554531767e-05,-2.355743924638392e-05,-5.799331939778727e-05
218.601362215759,-26.17050248511233,-2.881270729141562,55.56248542525158,-4.463765513004996e-05,-4.277799986087806e-05,-9.834700080552119e-05
218.65505937581864,-26.193274479909952,-2.8852198470334116,55.55936208304563,-4.057626808432722e-05,-4.585900223672893e-05,-0.00010152623159768064
218.71561898725955,-26.219332024322576,-2.889293065919282,55.55656889337122,-2.080217323588343e-05,-3.132058012725738e-05,-6.563223775630614e-05
218.7598241344604,-26.238691389533727,-2.8919227107477843,55.55518840397737,7.3478219277675895e-06,-4.447038052175343e-06,-3.7916729420653443e-06
218.7703407567844,-26.243769641285375,-2.892069098472059,55.555778282052046,3.3175716273852276e-05,2.462732209277579e-05,6.063054458370426e-05
218.7425052088163,-26.23235078794854,-2.8896308231907275,55.55814686673395,4.6684711179537084e-05,4.4736363284738595e-05,0.00010285120477500246
218.68635127419256,-26.20853710300309,-2.88550083751859,55.56141346601848,4.244493572333627e-05,4.796713755515301e-05,0.00010619519889094281
218.62300913233648,-26.181282459160116,-2.881240298569633,55.56433531623982,2.1768988460610203e-05,3.276867098261669e-05,6.866941318867555e-05
218.57676225645648,-26.1610291628483,-2.8784889624739725,55.56578001615375,-7.67183162667194e-06,4.664996311250353e-06,3.996891133867538e-06
218.56574506150415,-26.155710184233172,-2.8783346040860707,55.565163982673994,-3.468905259014872e-05,-2.5745787046607498e-05,-6.338768102520554e-05
218.59484204454984,-26.167646130082034,-2.8808837614595566,55.562687320643775,-4.8825640144000675e-05,-4.6784375705853464e-05,-0.00010756168785724584
218.6535651513369,-26.192549154115454,-2.8852028981971927,55.55927089383316,-4.439965720946439e-05,-5.01721796637394e-05,-0.00011107887244506859
218.7198176672376,-26.221055890639278,-2.889659371353485,55.5562144569773,-2.2780729459554235e-05,-3.42837075310905e-05,-7.184712138223661e-05
218.7682005670446,-26.242244392844327,-2.8925380296007344,55.55470256055456,8.010104208083514e-06,-4.893593830689722e-06,-4.212959996305153e-06
218.77974212995113,-26.24781549778225,-2.89270078194755,55.555345907686274,3.6271415369698515e-05,2.691503981050405e-05,6.627018021058073e-05
218.74932655879306,-26.23533904871008,-2.8900357007034696,55.557935578202205,5.106474662585459e-05,4.8926140835519095e-05,0.0001124878965895545
218.68791674031124,-26.209296857208273,-2.8855187502789796,55.561508704325945,4.644439520366956e-05,5.2478582989263596e-05,0.00011618712527883162
218.61862013318708,-26.179480508534027,-2.880857332656052,55.56470592684478,2.383948344665057e-05,3.586878441770462e-05,7.517186424801993e-05
218.56800255960226,-26.157313620033086,-2.8778454608477793,55.56628814459441,-8.363266344740873e-06,5.13334808560829e-06,4.440443261437583e-06
218.55591170365042,-26.151478450025415,-2.8776738691810575,55.56561627434387,-3.7925952798327975e-05,-2.8137386213006365e-05,-6.928374143393022e-05
218.58770560488702,-26.16451987267324,-2.8804601452921546,55.562908439234235,-5.3406532609682144e-05,-5.116595022467801e-05,-0.00011763971009290124
218.65192505174682,-26.191753339145443,-2.885183968732041,55.55917142685111,-4.8583294832961565e-05,-5.489100670259278e-05,-0.00012153028439093944
218.7244056106616,-26.22293946170074,-2.8900597554102383,55.55582693412963,-2.4947434588460796e-05,-3.752713932861676e-05,-7.865044448532534e-05
218.7773610635608,-26.246129910483766,-2.8932110047665063,55.55417112495226,8.731972187292524e-06,-5.384801639816039e-06,-4.679933551332674e-06
218.7900273209926,-26.252241649085086,-2.893391904313649,55.55487278127012,3.965595663368255e-05,2.9415236752937976e-05,7.243432305800704e-05
218.75679264153186,-26.238609674917157,-2.8904789227014334,55.55770417231494,5.585570651257573e-05,5.3508291861508265e-05,0.00012302745988024578
218.6896350264805,-26.21013044261081,-2.8855387520439333,55.56161258751652,5.082069209188389e-05,5.741432412919056e-05,0.00012711915163399388
218.61382422958454,-26.17751162081064,-2.8804387383407244,55.56511113364081,2.6106868506896105e-05,3.926215960221245e-05,8.22899794952691e-05
218.55842292578112,-26.153250352141214,-2.877141662261888,55.56684395638284,-9.116904566424002e-06,5.648523358707653e-06,4.932053842474031e-06
218.54515391897397,-26.146848949952357,-2.876950961882873,55.566111195206076,-4.1464868752217e-05,-3.0751111349989326e-05,-7.57281542888862e-05
218.57989465354112,-26.161098211297272,-2.8799964101612723,55.56315061092002,-5.841719264943449e-05,-5.5957859162513025e-05,-0.00012866195057184733
218.6501248569593,-26.190880192670782,-2.8851628361106245,55.55906293161188,-5.3161122630815294e-05,-6.0053632592131966e-05,-0.00013296502554819363
218.72941889885138,-26.224997529660023,-2.890497388117483,55.555403236469346,-2.7320176991022078e-05,-4.107738914572744e-05,-8.609791593786657e-05
218.7873790112828,-26.25037905972132,-2.8939470384744412,55.553589818922504,9.518776247446332e-06,-5.925109680636706e-06,-5.19745900373427e-06
218.80127941359606,-26.257083839915047,-2.894148058279627,55.554355062058264,4.335628799470804e-05,3.2147644310876004e-05,7.917174748571707e-05
218.76496439019772,-26.24218934563598,-2.8909641202506142,55.557450734076724,6.109614113224448e-05,5.85195603751195e-05,0.00013455448155910016
218.6915210288789,-26.21104502560008,-2.8855610771948443,55.56172589931815,5.560933094890007e-05,6.281426370750642e-05,0.00013907972419890407
218.6085837053893,-26.17536033411902,-2.879981201452738,55.56555416589784,2.8589862927651956e-05,4.2976535671515076e-05,9.008204496241271e-05
218.5479466102294,-26.148806818531575,-2.876371917077461,55.56745192598849,-9.938331239629406e-06,6.215185949587861e-06,5.476837411581782e-06
218.53338480648435,-26.141784297218678,-2.8761600322935195,55.56665276291099,-4.533397732390012e-05,-3.360758952085168e-05,-8.277191102987202e-05
218.5713454431876,-26.157353235047204,-2.879488756982946,55.5634158397515,-6.389793822323902e-05,-6.119852841062056e-05,-0.00014071686966032204
218.6481489626012,-26.189922208909273,-2.8851392534781093,55.558944589676955,-5.8170280010235824e-05,-6.57017941529994e-05,-0.00014547560906424847
218.73489695682284,-26.2272462564206,-2.890975734342496,55.55493998738679,-2.991854546088596e-05,-4.496347826772951e-05,-9.42505181422994e-05
218.79833466606212,-26.255025869674732,-2.894752039103123,55.55295396277512,1.0376346162662456e-05,-6.519407812095789e-06,-5.770912646371447e-06
218.81358930143497,-26.262381174573783,-2.8949753627588724,55.553788547347395,4.7401871308515595e-05,3.5133825870799934e-05,8.65357627789078e-05
218.77390849623524,-26.246107260487328,-2.891495268226718,55.557173166241554,6.682821716274843e-05,6.400013112715396e-05,0.000147161472813913
218.6935910937028,-26.212048467408643,-2.8855859857112387,55.56184949441503,6.084916130280532e-05,6.872205693139961e-05,0.00015216561002099566
218.602857349299,-26.173009754836762,-2.879481099577146,55.566038554287374,3.1308965391225605e-05,4.7042275318878076e-05,9.86118641468468e-05
218.53648968538343,-26.143947433527316,-2.8755300463270634,55.56811694773441,-1.0833631672727386e-05,6.838462681500756e-06,6.080445273758535e-06
218.5205092963876,-26.136243591119225,-2.8752946801137202,55.56724537373803,-4.956408394850898e-05,-3.672936293059323e-05,-9.04707441319123e-05
218.56198820229977,-26.153254396089558,-2.8789330269562976,55.56370632050344,-6.989286949350275e-05,-6.692998208331598e-05,-0.00015390121485638192
218.64598024543014,-26.188871154361237,-2.8851129470455046,55.558815508513476,-6.365140536053616e-05,-7.188115315177747e-05,-0.00015916325147923976
218.7408828630814,-26.229703300443937,-2.891498581210646,55.554433495119824,-3.276399082538567e-05,-4.9217172792410385e-05,-0.00010317500618423594
218.81031579514703,-26.260107553776173,-2.8956324686005654,55.55225843771049,1.1311033950778048e-05,-7.173071272779434e-06,-6.406234715478613e-06
218.827056422288,-26.268176432691043,-2.8958805123758937,55.55316863836637,5.182491685712326e-05,3.8397346879892044e-05,9.458463473401436e-05
218.78369795349252,-26.25039537776272,-2.8920767178655105,55.55686917197153,7.309805690414861e-05,6.999395178394826e-05,0.00016094961143491216
218.69586315813322,-26.213149391414618,-2.8856137659115566,55.56198430486246,6.658269276981002e-05,7.518546435212578e-05,0.0001664826797186877
218.59660013102368,-26.170441425044224,-2.878934473389802,55.56656815901141,3.4286623088442235e-05,5.149261290825799e-05,0.00010794928025120119
218.52396036865375,-26.138633281488303,-2.8746092921229165,55.56884437519176,-1.1809436255731716e-05,7.523989211344323e-06,6.749121213940563e-06
218.50642338224137,-26.130182086787833,-2.8743479028594283,55.56789383827618,-5.418886781601594e-05,-4.014106670806386e-05,-9.888556784909985e-05
218.5517465659004,-26.148768260555812,-2.8783246675072993,55.56402445682198,-7.645022361578498e-05,-7.319817944062275e-05,-0.00016832079710641382
218.6435999156835,-26.187717997326445,-2.885083613207957,55.558674714796,-6.964896568272552e-05,-7.864166538834778e-05,-0.00017413869148180013
218.7474236881135,-26.23238795529364,-2.8920700680736253,55.553879723342035,-3.588000291049597e-05,-5.387324320902139e-05,-0.00011294445422679525
218.82341838016046,-26.26566480773171,-2.896595394346937,55.55149764461868,1.2329760545395769e-05,-7.892008719368975e-06,-7.109987895307133e-06
218.84178956116008,-26.274516414646065,-2.8968708316309124,55.55249030295258,5.666063972046382e-05,4.1963960695431794e-05,0.00010338204643109162
218.79441265375604,-26.25508867503312,-2.8927132323945504,55.55653623584635,7.995610933641392e-05,7.65490852703803e-05,0.0001760295536773846
218.69835690499045,-26.214357256956013,-2.8856447374829184,55.56213134708092,7.28564398604446e-05,8.225673791562011e-05,0.00018214676388156944
218.58976284746487,-26.167635177710807,-2.8783369953268316,55.56714720055609,3.754741690059458e-05,5.636392604931731e-05,0.00011817074784926108
218.5102582872892,-26.13282180522375,-2.8736022634192278,55.56964006427047,-1.287296916807554e-05,8.277960383365921e-06,7.489762935962191e-06
218.49101328093698,-26.123550833908816,-2.8733120392066516,55.5686034204669,-5.9245149932430965e-05,-4.3869623188616145e-05,-0.00010808295992553512
218.54053695252557,-26.143858235902165,-2.8776586950086394,55.564372881098365,-8.362276280934402e-05,-8.005338335735664e-05,-0.00018409133984139317
218.64098735508847,-26.186452830600523,-2.885050915359362,55.55852114710365,-7.621161727102748e-05,-8.603798448935561e-05,-0.00019052308568437597
218.75457086423026,-26.235321301001825,-2.8926947192641714,55.55327425900575,-3.929230432125075e-05,-5.896974852365577e-05,-0.00012363885361685133
218.83774738586354,-26.271742135359467,-2.8976485458759322,55.55066545901218,1.3440066627936207e-05,-8.682715006923646e-06,-7.8894218375102e-06
218.85790772889092,-26.281452319451688,-2.8979543341601843,55.551748034710656,6.194754006009493e-05,4.586181168331141e-05,0.00011299760183466982
218.80614003855604,-26.260225434375677,-2.8934100260380067,55.55617160306571,8.745755598277719e-05,8.371809510305629e-05,0.00019252232217359548
218.70109393240475,-26.215682440287935,-2.88567925483005,55.562291729481146,7.972129926728374e-05,8.999304331424075e-05,0.00019928459003114255
218.58229173612287,-26.164568978479174,-2.877683935340986,55.567780293315536,4.111826417750978e-05,6.16960328531105e-05,0.00012935995865532573
218.49527367444668,-26.126466465251276,-2.8725008766933593,55.57051042035309,-1.4032101427325838e-05,9.107185552696085e-06,8.309989815706657e-06
218.4741545137264,-26.11629628147481,-2.8721787070061877,55.56937988032608,-6.477318618327443e-05,-4.79444542284461e-05,-0.00011813568808067586
218.52826788232127,-26.138484272515463,-2.87692965397045,55.56475447623298,-9.146819882905902e-05,-8.755056329221447e-05,-0.00020133940754441865
218.63811993914632,-26.18506478669216,-2.885014480371625,55.558353647958455,-8.33926003713429e-05,-9.412990367113223e-05,-0.00020844898866291333
218.76238058966888,-26.23852636944467,-2.893377479896322,55.55261227718471,-4.3029062635169875e-05,-6.454834725198335e-05,-0.00013534576759683086
218.8534176008632,-26.278388204915203,-2.8988003769099917,55.54975518173099,1.4650167989404699e-05,-9.552329177934428e-06,-8.752544308985335e-06
218.87554112334786,-26.289040158151998,-2.899139787571455,55.55093580832323,6.772770954508744e-05,5.0121657166306145e-05,0.00012350737620336
218.81897581255853,-26.265847554543136,-2.8941728067138266,55.55577225667359,9.566275484337743e-05,9.155846680241976e-05,0.00021056027701738775
218.70409793995933,-26.217136323371847,-2.8857177107765457,55.562466660777474,8.723296269387703e-05,9.845692205296552e-05,0.00021803480772002238
218.5741280526947,-26.161218752806278,-2.8769701234740372,55.568472482353044,4.5028640783435214e-05,6.753251729664243e-05,0.00014160852651693456
218.47888649002525,-26.119516367174207,-2.8712962910698687,55.57146244985056,-1.529540866457166e-05,1.0019149368057203e-05,9.218217612527626e-06
218.45571090087194,-26.10835984539998,-2.8709387354669555,55.57022952069154,-7.081698773109614e-05,-5.239771322386287e-05,-0.00012912328543019348
218.51483923071046,-26.132602537132584,-2.8761315723679344,55.56517239946969,-0.00010004965725306079,-9.574983598695912e-05,-0.000220203421299049
218.63497284216433,-26.183541944837863,-2.8849738947037302,55.558170955144874,-9.125017101719386e-05,-0.00010298283904225948,-0.00022806142518719909
218.77091427012297,-26.242028325023014,-2.8941237549943493,55.55188850263552,-4.712112275799142e-05,-7.06546378197386e-05,-0.00014816104797875102
218.87055455699382,-26.285656238757277,-2.9000601332071065,55.54875948502189,1.5969015824329147e-05,-1.050869817296958e-05,-9.708199644114238e-06
218.89483218096174,-26.297341206070527,-2.900436784378968,55.55004703065026,7.404716635816333e-05,5.4777109971238924e-05,0.00013499451765833597
218.83302472436057,-26.272000892620987,-2.8950078227727127,55.555334892616145,0.00010463772597005421,0.00010013306876169547,0.00023028817781205234
218.70739493290168,-26.21873139125492,-2.8857605406550944,55.56265745905132,9.545236857276388e-05,0.0001077167969642991,0.0002385491100602812
218.56520760954905,-26.157558197107242,-2.876189908949181,55.56922928359309,4.931082424123519e-05,7.392108535407705e-05,0.0001550167372353542
218.46096545922776,-26.11191585419482,-2.8699788373667907,55.57250381659563,-1.667223404638639e-05,1.1022078551069231e-05,1.0223740848307032e-05
218.435533461801,-26.09967743549791,-2.869582090959242,55.57115923837583,-7.742467129625888e-05,-5.72645386639678e-05,-0.00014113267939007998
218.50014141154216,-26.126165055410688,-2.875257912740171,55.565630108497615,-0.00010943618532064638,-0.00010471694742819863,-0.00024083476946570962
218.63151882336123,-26.181871229021183,-2.884928700102102,55.55797169224654,-9.984807354515197e-05,-0.00011266835835164495,-0.00024951906331368776
218.78023900116764,-26.245854662064026,-2.894939452259833,55.55109716777254,-5.160226135716633e-05,-7.733853115154293e-05,-0.00016218961964404582
218.88929553473676,-26.293604439470407,-2.901437926763694,55.547670353559354,1.74063623949648e-05,-1.1560446826113088e-05,-1.0766155245832518e-05
218.91593672710027,-26.306422497560398,-2.9018558196118986,55.54907448722068,8.095622144751354e-05,5.9864903486457586e-05,0.00014754990466503355
218.8484014210599,-26.278735637957702,-2.8959219141615336,55.55485589242666,0.00011445468258808176,0.0001095106562668231,0.00025186434520174856
218.7110134461781,-26.22048133886934,-2.885808226827126,55.56286556163212,0.00010444619633579602,0.00011784752525725479,0.0002609934607514395
218.55546027145417,-26.153558572421474,-2.8753371154599847,55.57005672776354,5.400015997926314e-05,8.091395480365246e-05,0.00016969436934851964
218.44136702114915,-26.103604061501215,-2.868537940494848,55.57364290352682,-1.817275680044168e-05,1.2125015262366427e-05,1.1336823635377865e-05
218.41345921188483,-26.090178938005494,-2.86809779583772,55.57217658013877,-8.464884210792585e-05,-6.258333121486048e-05,-0.00015425887903432504
218.48405448306332,-26.119119320734903,-2.8743015186598404,55.566131390035466,-0.00011970330740532624,-0.00011452379993497061,-0.00026339902239653877
218.6277279922147,-26.18003829612732,-2.884878388849808,55.55775435832915,-0.00010925605762161466,-0.0001232647594552183,-0.0002729954978283243
218.79042809536813,-26.250035420491237,-2.8958310288150573,55.550231966720986,-5.650946547051277e-05,-8.465465849152985e-05,-0.0001775463392875568
218.90979066272834,-26.302296455859306,-2.9029448169689003,55.546479019932505,1.8972832542646172e-05,-1.2717054763716979e-05,-1.1937196955365866e-05
218.93902523456623,-26.316357367250248,-2.9034083757239824,55.54801028368193,8.850987893828452e-05,6.542518131837373e-05,0.00016127286462417278
218.86523138356577,-26.286106721416083,-2.8969225684299396,55.554331293312586,0.00012519261203696263,0.0001197664227073853,0.0002754619312047891
218.7149847902098,-26.222401188162046,-2.885861303676447,55.563092535869714,0.00011428740724503596,0.00012893100356989602,0.00028554943653178296
218.54480940460033,-26.149188478984186,-2.8744049923022574,55.57096140843855,5.9135352875657286e-05,8.856828189439381e-05,0.00018576159259159705
218.419934178972,-26.094514428961098,-2.8669620345868925,55.57488888016012,-1.9808066842310208e-05,1.3337897702707849e-05,1.2568799813649954e-05
218.38930984612367,-26.079787649475335,-2.8664738396275684,55.57328980393457,-9.25470125720818e-05,-6.839605651886213e-05,-0.0001686057263383115
218.46644716941816,-26.111407866074266,-2.873254556135752,55.56668039113508,-0.00013093363259098026,-0.0001252490285970181,-0.0002880772609336063
218.62356755103357,-26.178027413279608,-2.8848223985178327,55.55751731669271,-0.00011955044397372444,-0.00013485770317613033,-0.00029868065441925707
218.80156165820657,-26.254603421452984,-2.896805542292438,55.54928600508232,-6.188323758664777e-05,-9.26628177869823e-05,-0.00019435693543136878
218.93220412016015,-26.31180189254237,-2.9045928993615773,55.54517589407898,2.0680001565370038e-05,-1.3988940885729993e-05,-1.3233234193460984e-05
218.96428420038373,-26.32722604215556,-2.9051070154911542,55.54684578173203,9.676827388945726e-05,7.150181382959247e-05,0.00017627195925101638
218.88365195028152,-26.29417426328216,-2.898017982038553,55.55375675539689,0.00013693791120309072,0.00013098260239675832,0.00030127030853987417
218.71934332052157,-26.224507416553386,-2.885920363125984,55.5633400908782,0.00012505583617004545,0.00014105682991515496,0.0003124156959100947
218.533171274593,-26.144413609936684,-2.8733861609623963,55.571950534564635,6.475878650327342e-05,9.694662835774865e-05,0.0002033499513857262
218.396495242564,-26.084574168221472,-2.8652384701765747,55.576251776391075,-2.159024604501871e-05,1.4671648660912184e-05,1.3932183344349551e-05
218.3628902991105,-26.068419657466386,-2.864697081855276,55.574507945930165,-0.00010118205998753714,-7.474857609481581e-05,-0.0001842867172448155
218.4471757896974,-26.10296779539572,-2.872108449468513,55.56728165346257,-0.00014321751923815666,-0.00013697863168417621,-0.0003150675293481693
218.61900151255045,-26.175821323312277,-2.884760106166736,55.55725878260968,-0.00013081474341214888,-0.00014754090567288222,-0.0003267823259356658
218.81372721734945,-26.259594524755705,-2.897870706673948,55.54825174501225,-6.776792971195132e-05,-0.00010142846228113479,-0.00021275903739894944
218.95671545170123,-26.322196867224363,-2.90639540270209,55.54375048609852,2.2540480026620488e-05,-1.538755617556202e-05,-1.4667415867297305e-05
218.9919176519907,-26.339116289435182,-2.9069654836487118,55.54557152901508,0.00010579715087891646,7.814274405291619e-05,0.00019266584294943976
218.90381343750713,-26.30300406348264,-2.899217127470606,55.55312752584385,0.00014978508155536472,0.00014324912983334755,0.00032949659009087946
218.72412673353423,-26.22681809781922,-2.8859860607319225,55.56361009033901,0.00013683883911048275,0.00015432302786939084,0.0003418095860561047
218.5204543886912,-26.139196482245325,-2.8722725567398486,55.573031987888186,7.091687270673013e-05,0.00010611747257876418,0.00022260344140101143
218.37086245340655,-26.0737036799487,-2.863353412681433,55.57774256322111,-2.3532456740821018e-05,1.613827279033764e-05,1.544079000362705e-05
218.3339871696447,-26.055983163033403,-2.862753145738113,55.57584089383833,-0.00011062272695148097,-8.169100894687812e-05,-0.0002014258990411249
218.42608308580245,-26.093730270816522,-2.870853811034358,55.5679401508399,-0.00015665380188591122,-0.00014980666007984925,-0.0003445864243768454
218.61399039011272,-26.17340109723331,-2.884690821941798,55.55697680995718,-0.00014314033416556354,-0.0001614168959106821,-0.00035752785315708107
218.82702041019505,-26.265047910119463,-2.8990349533221114,55.54712094517369,-7.421210917767654e-05,-0.00011102323530600862,-0.00023290330166771204
218.9835210054699,-26.333564620109243,-2.9083667951378587,55.54219132182466,2.4568006110416656e-05,-1.6925485657675877e-05,-1.625425813780979e-05
219.0221487949984,-26.35212412502264,-2.908998818090084,55.54417718241072,0.0001156683872242773,8.540036570689981e-05,0.0002105842009640711
218.92588036569762,-26.312668138107327,-2.900529826696256,55.55243839957234,0.00016383748937420553,0.00015666436068712344,0.00036036729069971495
218.72937639105444,-26.22935305659724,-2.8860591224149665,55.563904566457964,0.0001497320017149408,0.00016883683885611771,0.0003739689008452132
218.5065587771263,-26.133496142720787,-2.8710553649420403,55.57421438574147,7.766043439298275e-05,0.00011615576910206636,0.00024367968800113936
218.34283048084367,-26.06181591654414,-2.8612917313758333,55.57937324105768,-2.564903809678667e-05,1.775096347236211e-05,1.7109871524771962e-05
218.30236699727257,-26.04237773954577,-2.860626301872335,55.57729946716111,-0.00012094416843572218,-8.927812673110622e-05,-0.00022015885113866576
218.40299693956266,-26.083619951314397,-2.869480364422441,55.5686613303576,-0.0001713505863359331,-0.00016383597126461274,-0.0003768708331022881
218.6084908578135,-26.170745972420193,-2.8846137819988886,55.556669276644186,-0.0001566272030194984,-0.00017659784435740834,-0.00039116596366619265
218.8415457350949,-26.271006384459497,-2.900307497685225,55.54588459508635,-8.126895920235389e-05,-0.00012152555564345116,-0.0002549546448146364
219.01283550557136,-26.345996180330744,-2.910522900314537,55.540485850474894,2.6777546191944393e-05,-1.8616560402504837e-05,-1.8009785252823794e-05
219.05522181582646,-26.366354588852325,-2.911223471526738,55.54265142409534,0.00012646056500209663,9.333193629149363e-05,0.00023016877472401595
218.95003280158213,-26.32324530660975,-2.901966831590884,55.55168367623257,0.00017920819728876717,0.00017133586029037716,0.00039413014461845504
218.7351376762489,-26.232134037833674,-2.8861403518946647,55.564225735181054,0.00016383991454154583,0.0001847155889275887,0.00040915380427538917
218.49137520786607,-26.12726784683413,-2.8697249511472487,55.575507149687795,8.504512469051527e-05,0.00012714356104263604,0.00026675123621034194
218.31217477761297,-26.048815685234196,-2.8590368779628967,55.58115693629907,-2.7955611062523795e-05,1.9524220209574816e-05,1.8956263453877244e-05
218.2677743768417,-26.0274935218522,-2.858299340979274,55.57889550499408,-0.00013222854988600028,-9.75697855934667e-05,-0.00024063375700540348
218.3777289686473,-26.07255437841991,-2.8679768602964675,55.56945115739758,-0.0001874261193140746,-0.00017917905389331387,-0.00041217983361989776
218.60245537765238,-26.16783317517004,-2.884528140691766,55.55633386872499,-0.00017138475626956502,-0.00019320646960110048,-0.00042796878369667546
218.85741737214616,-26.277516717601543,-2.901698412204186,55.54453284335062,-8.899671751101592e-05,-0.0001330212582355228,-0.0002790935931414516
219.04489377178956,-26.359591094735613,-2.912881024364447,55.53862034363668,2.918540435229241e-05,-2.047598056658184e-05,-1.995168477320194e-05
219.0914038537649,-26.381922592939297,-2.913657444593297,55.54098186969392,0.00013825959641624986,0.00010200002851861668,0.00025157448248048033
218.9764678270843,-26.3348218344728,-2.9035399119655683,55.5508571130905,0.00019602087381063646,0.00018738126595262467,0.0004310560932005469
218.7414603841486,-26.23518489261391,-2.886230638899498,55.56457601278133,0.00017927702134700545,0.0002020876370489135,0.0004476489348114478
218.47478432865685,-26.120462707812898,-2.8682707849839737,55.576920580571965,9.313188593190665e-05,0.0001391706504034279,0.0002920069627556008
218.2786497814886,-26.0345988859564,-2.856570753771085,55.583108006981135,-3.0469192650065316e-05,2.147397758389902e-05,2.0998548111564428e-05
218.22992989584188,-26.011210319246082,-2.8557534346799915,55.580641962104636,-0.0001445657011025965,-0.00010663139808173247,-0.0002630125757213792
218.35007298981824,-26.060443303884007,-2.8663309842921167,55.570316164938504,-0.00020500973970420157,-0.00019595892957481272,-0.0004507967737378733
218.5958317905291,-26.164637726092778,-2.884432961944599,55.555968063080826,-0.00018753270706516227,-0.00021137703021555297,-0.0004682340392263459
218.87476007999717,-26.284630009061146,-2.9032187059975207,55.54305491917344,-9.745915662633667e-05,-0.0001456042954773843,-0.0003055177600202322
219.07995260020797,-26.374458224852404,-2.915460094791242,55.536579784775924,3.1809341630192255e-05,-2.2520450552697115e-05,-2.2099478653234378e-05
219.13098715839195,-26.398953849158225,-2.916320431474535,55.539154967777364,0.00015115940749061397,0.00011147302363444405,0.0002749706440934151
219.00540114702736,-26.34749213657763,-2.9052619519301697,55.549951873431155,0.00021441078817961663,0.00020492923001125013,0.000471441458776462
218.74839915003267,-26.23853178195965,-2.886330968232838,55.56495803394077,0.00019616854728293537,0.00022109341254797414,0.0004897657076750047
218.4566557296121,-26.11302731326812,-2.8666813568241203,55.57846594057358,0.0001019874522426451,0.00015233533177476952,0.0003196536217354711
218.24198694863574,-26.019051677941363,-2.8538735645098496,55.585242158335404,-3.3208320373100266e-05,2.3617746916432513e-05,2.3257234193999098e-05
218.18852787787662,-25.99339664507037,-2.8529679831722863,55.58255301406285,-0.00015805383110417714,-0.0001165344488493638,-0.0002874723224147248
218.31980333699138,-26.047187953839753,-2.864529256196362,55.571263507550455,-0.00022424291900533612,-0.00021431013908224092,-0.0004930315443859767
218.58856286756557,-26.161132226689773,-2.884327209725443,55.555569108541036,-0.00020520204633915764,-0.00023125640988943893,-0.0005122874641163089
218.89371017570235,-26.292402088760845,-2.9048804119545775,55.54143904657228,-0.00010672610979012895,-0.0001593775048205783,-0.00033444346304491515
219.11829281981383,-26.390716618425735,-2.9182808123651363,55.53434774837939,3.466870587369745e-05,-2.476832748132799e-05,-2.4474711784030936e-05
219.17429144976532,-26.417585884211945,-2.9192339792322075,55.53715588988983,0.00016526268552511202,0.00012182565052013108,0.0003005423196450127
219.03706884873318,-26.361359547009933,-2.90714705537773,55.548960470054524,0.0002345258985233161,0.0002241204511765229,0.0005156103221525834
218.75601391936058,-26.242203400328734,-2.8864424297831537,55.5653746714615,0.00021465151452620672,0.00024188655011491136,0.0005358448336990917
218.43684691899185,-26.104903306348753,-2.864944086731308,55.580155542917126,0.00011168489987834935,0.00016674519540807727,0.0003499175365598453
218.20189260293128,-26.002049568319634,-2.8509236614189684,55.58757656918948,-3.619318774578028e-05,2.5974771877312533e-05,2.5754954701174356e-05
218.14323391404648,-25.973908655128767,-2.8499204485780094,55.584644172278786,-0.00017280030966185857,-0.00012735705821436853,-0.0003142064676955878
218.28667302039136,-26.032680223460595,-2.8625569195836613,55.572301020524804,-0.00024528039938064196,-0.00023437982089830525,-0.0005392230659701855
218.5805858179131,-26.157286625300458,-2.884209737528029,55.55513400530258,-0.00022453610519677542,-0.00025300530458800574,-0.0005604854347710311
218.9144166053171,-26.30089395482426,-2.9066966819256113,55.53967235057259,-0.00011687404684959306,-0.00017445344895610767,-0.0003661074942177102
219.16022154155579,-26.40849646249125,-2.921365817247489,55.531906267757606,3.778457313093856e-05,-2.7239784281435126e-05,-2.7101159770994148e-05
219.22166650044576,-26.437969149981996,-2.922421662120442,55.53496841021372,0.00018068169626134968,0.00013313957481823695,0.00032849177245705273
219.07172932786565,-26.37653716157741,-2.9092106614534208,55.54787470339758,0.00025652804208274024,0.0002451088024372388,0.0005639171228054424
218.7643704632791,-26.246231220719814,-2.88656622957582,55.56582905775316,0.00023487585357898587,0.0002646351315231974,0.0005862590751176703
218.41520220413528,-26.096026928141725,-2.8630452249443668,55.58200284995297,0.00012230424984594658,0.000182518006222947,0.0003830464520013206
218.1580455840294,-25.983456415458306,-2.8476973675369894,55.59013003022636,-3.9445791820819564e-05,2.8566199416340832e-05,2.8516685050722118e-05
218.09368216230965,-25.952588986333332,-2.8465861726126445,55.58693240987937,-0.00018892252172078233,-0.0001391845980130316,-0.00034342646714539103
218.25041171178597,-26.016801795550634,-2.860397821005723,55.57343728462844,-0.00026829143845168613,-0.000256328890740165,-0.0005897420076184988
218.57183174882798,-26.1530679604244,-2.8840792767595227,55.55465948249645,-0.00024569171737849334,-0.0002767995213408543,-0.0006132178526260311
218.93704211363118,-26.31017225187732,-2.908681890761323,55.53774075465347,-0.0001279867048543628,-0.00019095533543941,-0.0004007690576510384
219.20607461786065,-26.427940125620594,-2.924739870677657,55.5292356904455,4.117990160199469e-05,-2.9956988837002985e-05,-3.0005057895088295e-05
219.27349496020074,-26.460268238225325,-2.9259092722997035,55.53257477389596,0.00019753917725853868,0.00014550404272609504,0.0003590400680717684
219.10966539622322,-26.393148759906985,-2.9114696709530934,55.54668559377082,0.0002805942370769461,0.00026806256456709924,0.0006167495026296917
218.7735409441194,-26.250649763469738,-2.8867037019739232,55.56632460825523,0.0002570056192498467,0.0002895230441066706,0.000641416260576236
218.39155146876632,-26.086328517733605,-2.8609697431091936,55.584022580389814,0.00013393312777511452,0.00019978266592676275,0.00041931156150836114
218.11009467533958,-25.963123339050362,-2.8441687876948185,55.59292309521487,-4.299009383307181e-05,3.141526751953316e-05,3.156998342290361e-05
218.0394723930132,-25.929265486213723,-2.8429381771023454,55.58943629944561,-0.0002065488015062177,-0.00015211036460024117,-0.0003753634329461532
218.21072353937112,-25.99942317588235,-2.858034277746187,55.574681697015606,-0.00029346117084989886,-0.0002803333315176768,-0.0006449937611312061
218.56222507339245,-26.148440079233147,-2.883934423921602,55.554141973732314,-0.000268840491223158,-0.0003028313991512929,-0.0006709112977739024
218.96176452222292,-26.32030979360262,-2.910851750024478,55.535628868623206,-0.0001401557785611351,-0.0002090180232680568,-0.00043871189063570076
219.25621933230687,-26.449203297677755,-2.9284300536798717,55.52631452003641,4.487969926411092e-05,-3.294430076655638e-05,-3.32153534041876e-05
219.33019544619955,-26.484663209421825,-2.929725028491899,55.52995555296768,0.00021596931458655905,0.00015901658452788724,0.0003924288218298582
219.1511865886704,-26.411329814636908,-2.913942584685776,55.54538330715107,0.0003069181066776654,0.0002931657751182352,0.0006745314160517609
218.7836045357258,-26.255496891031072,-2.8868563231463433,55.566865046969966,0.0002812203211760966,0.00031675146697032964,0.0007017625837458505
218.36570883707654,-26.07573196601696,-2.858701215399014,55.58623082653352,0.00014666748647795006,0.00021868026610465628,0.0004590097263638534
218.05765579132375,-25.940887528232714,-2.840309600709978,55.59597824642901,-4.6852194108838925e-05,3.4547511444329494e-05,3.494525558861395e-05
217.9801667567397,-25.903749823032136,-2.838946945734956,55.59217616372857,-0.00022581945374499995,-0.00016623631429818513,-0.0004102699608573336
218.16728467432293,-25.980402637418948,-2.8554469330579844,55.5760445488845,-0.0003209920974761592,-0.0003065856040638323,-0.0007054216934919332
218.55168286080803,-26.143363328876283,-2.883773626460604,55.553577590441435,-0.00029417020144536604,-0.0003313113635095411,-0.000734032479231905
218.98877812585673,-26.33138613364129,-2.913223432272633,55.53331986603328,-0.0001534816765362126,-0.00022878912463305038,-0.00048024658542565965
219.3110573409842,-26.472456236210334,-2.93246598438452,55.52311924317699,4.8911206380606025e-05,-3.622848756750885e-05,-3.676398349705917e-05
219.39222592364686,-26.51135104650036,-2.9338998042644002,55.52708948868727,0.00023611881060568615,0.00017378378340763602,0.00042892210885300895
219.19663168801995,-26.43122859593005,-2.916649654932522,55.54395707391575,0.0003357114365468471,0.00032061970371381786,0.0007377265314576906
218.79464810392963,-26.260814131238845,-2.8870257259336034,55.56745443429382,0.0003077163796761577,0.00034654049694481993,0.0007677862122162611
218.3374712141064,-26.064154118962996,-2.8562216885831564,55.58864518246499,0.0001606123971512674,0.00023936524088050796,0.0005024659048416804
218.00030890159113,-25.91657093819304,-2.8360888321141307,55.599320075586846,-5.106052250350353e-05,3.799099024823086e-05,3.8676046699113835e-05
217.9152862483697,-25.87583596528423,-2.8345801852795978,55.595174240566394,-0.0002468878701259914,-0.00018167386708696075,-0.00044842212697469386
218.11974068933588,-25.959585064815954,-2.8526145976986266,55.577537110518875,-0.00035110571444650054,-0.000335296189944085,-0.000771510704030121
218.54011412369996,-26.137794217954358,-2.8835951671498083,55.5529620928187,-0.0003218863120126063,-0.00036246962707161314,-0.0008030920097530873
219.01829521818544,-26.34348818931376,-2.9158157068945405,55.53079535015348,-0.00016807434908669254,-0.00025043021084176803,-0.0005257131307313881
219.37102788909758,-26.49788512945139,-2.936880055707417,55.51962414033086,5.330409421055386e-05,-3.9838962026974623e-05,-4.068618160053914e-05
219.46008740415655,-26.540547245177848,-2.9384673777893786,55.523953319028934,0.0002581480513269745,0.00018992211559938773,0.00046880855152102213
219.24637148845548,-26.453007380311043,-2.9196130512409635,55.54239509984957,0.00036720587846422856,0.00035064446546385013,0.0008068419512202429
218.80676695299067,-26.26664703181799,-2.887213716255137,55.5680971973553,0.0003367087187370193,0.0003791309274237003,0.0008400212358527417
218.3066166909708,-26.051504125686805,-2.8535115400171005,55.591284884177824,0.0001758829157414153,0.0002620066285627475,0.0005500358112313881
217.9375946671636,-25.88997886483348,-2.831472605590454,55.60297548176453,-5.564604574139479e-05,4.177653560350018e-05,4.279936276582947e-05
217.844306838812,-25.845298518312326,-2.8298025643435807,55.59845486334024,-0.00026992174988073027,-0.0001985447848680288,-0.0004901216700466636
218.06770366760864,-25.93680068978349,-2.849514076466737,55.57917172441732,-0.0003840442948253222,-0.00036669527870974365,-0.0008437911147691747
218.5274190363327,-26.1316850452775,-2.8833971468529924,55.55229085814889,-0.00035221364247060833,-0.0003965580502467588,-0.0008786485357072203
219.0505477587234,-26.356710923044538,-2.9186490885741723,55.52803520744236,-0.0001840541948427581,-0.0002741181322612306,-0.0005754836937105813
219.43661132856298,-26.525693586840823,-2.9417076952941272,55.51580107878861,5.8090681352421106e-05,-4.3808042987043664e-05,-4.502081480227524e-05
219.53432799172353,-26.572487553748964,-2.9434647050986866,55.52052158991627,0.00028223238263928467,0.00020755886849262086,0.0005124036009355605
219.3008118200294,-26.476843773680017,-2.922857041912433,55.540684468687346,0.00040165481374692037,0.0003834807854351546,0.0008824322801658548
218.82006564439726,-26.273045549147724,-2.887422291216483,55.568798163083656,0.00036843250905364583,0.000414786194457904,0.0009190519865462695
218.27290280241803,-26.037682726198632,-2.8505493224311236,55.59417096279206,0.00019260503161067064,0.0002867894525786492,0.0006021088264809561
217.86901076197816,-25.860898386082845,-2.826423871126508,55.60697388787882,-6.064249315289853e-05,4.593802508585503e-05,4.7356024833213745e-05
217.766655243165,-25.811890904603523,-2.8245754275534853,55.60204465843373,-0.0002951044341935385,-0.00021698213121865276,-0.0005356983765892711
218.0107490386998,-25.911863707001963,-2.846119978320197,55.58096190727903,-0.0004200728374762363,-0.0004010346131181712,-0.0009228429251669698
218.513488077044,-26.124983492751504,-2.8831774655028903,55.551558846281324,-0.0003853981912283929,-0.0004338521767284289,-0.0009613132554289914
219.0857891941712,-26.37115808682875,-2.9217459995560144,55.525017447344624,-0.00020155305346142722,-0.00030004646306142264,-0.0006299656652118918
219.50833296476586,-26.556104268996776,-2.946987649814906,55.5116192862577,6.33061692811528e-05,-4.8171241757139166e-05,-4.981075558952374e-05
219.6155473089664,-26.607429876370396,-2.948932219044438,55.516766448669614,0.0003085635055548007,0.00022683314392474513,0.0005600520303946286
219.36039685889986,-26.502932159286345,-2.9264081926667647,55.53881103538909,0.00043933539144807833,0.0004193919283170999,0.0009651040751167744
218.83465889503103,-26.28006447459056,-2.8876536590909208,55.56956259425476,0.00040314507525382513,0.0004537945058332652,0.001005517764289778
218.23606462305187,-26.022581473262846,-2.847311594290497,55.59732641206392,0.00021091670632223902,0.0003139162329748649,0.0006591111842654556
217.7940078501741,-25.829096657382046,-2.820902107701527,55.611347477479725,-6.608660243554338e-05,5.0512682339455236e-05,5.2391059149832324e-05
217.68170429114102,-25.775343373084,-2.818856482848717,55.605972761297664,-0.00032263636505567135,-0.0002371313201971473,-0.000585512687642393
217.94841211545318,-25.88457075930988,-2.8424045085222014,55.582922461688355,-0.00045948119870466814,-0.00043858950710845226,-0.0010093004653781187
218.4982010875601,-26.11763217892753,-2.882933801111406,55.55076056199725,-0.00042170913058712405,-0.00047465346041729013,-0.0010517548625720771
219.12429644837758,-26.38694303557054,-2.9251309469944973,55.52171802714126,-0.0002207152926315472,-0.0003284270825574336,-0.000689604993180244
219.58676726327607,-26.589360670182415,-2.952762295891241,55.5070451032113,6.898889877556322e-05,-5.296757669069434e-05,-5.510329136141018e-05
219.70440133937674,-26.64565635520345,-2.954914156383352,55.51265741799135,0.0003373510015714432,0.0002478969545633307,0.0006121306605763595
219.42561275029968,-26.53148528246433,-2.93029558411044,55.53675930926573,0.0004805507577273126,0.00045866580874845707,0.0010555207112002477
218.85067256238287,-26.287763902012678,-2.8879102613679155,55.57039622878047,0.00044112798277311097,0.000496471170335498,0.001100118007798814
218.1958126872842,-26.00608188227028,-2.843772734386139,55.60077637152466,0.00023096901110323094,0.0003436086408280685,0.0007215094585418274
217.71198518695846,-25.7943190477002,-2.8148629981226936,55.61613145375826,-7.201838720906882e-05,5.554140675585457e-05,5.795412697528796e-05
217.58876786237417,-25.735360821340088,-2.8125994593581805,55.61027105287272,-0.0003527366801678011,-0.00025915126245992673,-0.0006399585477605484
217.8801843037542,-25.85469927981743,-2.838337241114224,55.585069598419736,-0.0005025864238363438,-0.0004796610527056135,-0.0011038574853638457
218.48142624114453,-26.10956816941806,-2.882663586609545,55.54989001399045,-0.00046144098968930276,-0.0005192917017312714,-0.0011507049544443365
219.16637209655127,-26.404189615663533,-2.928830716789495,55.51811066045694,-0.00024169899833659616,-0.00035949190606457914,-0.0007548898314888748
219.67254245020357,-26.625729067534607,-2.9590779801486304,55.50204171200285,7.51806290823318e-05,-5.8239918689993405e-05,-6.095057553078117e-05
219.80160772467255,-26.687475648221785,-2.9614589156304634,55.50816114865556,0.00036882400028542275,0.00027091642201366745,0.0006690513379606143
219.4969915737777,-26.56273598504675,-2.9345510497876797,55.534512325990534,0.0005256324943229092,0.0005016172992185492,0.00115440770395938
218.86824472524526,-26.296209740472143,-2.888194797080355,55.571305322533505,0.0004826893213010635,0.0005431611460245348,0.0012036179514895158
218.15183071669745,-25.98805450246627,-2.8399047391900494,55.60454832670747,0.0002529273723578063,0.00037610930907649136,0.0007898143811155403
217.62228580782548,-25.756287101162897,-2.8082580734015927,55.62136432285409,-7.848142829032804e-05,6.106913556295325e-05,6.409999802632757e-05
217.48709534571603,-25.691620413187103,-2.8057537330929874,55.614974418288895,-0.0003856449565771251,-0.0002832156177175521,-0.000699466518744523
217.8055089542086,-25.82200567743338,-2.8338848698541597,55.58742107037392,-0.0005497352974836974,-0.0005245785335405051,-0.0012072727206711065
218.46301891075282,-26.100722440014977,-2.8823639842946536,55.54894067015748,-0.0005049160430884417,-0.0005681277129894682,-0.001258963949059193
219.2123467407773,-26.423033135771767,-2.932874585440227,55.51416660790049,-0.00026467727818239905,-0.0003934947794014609,-0.0008263545340427555
219.76634554302754,-26.665500652655247,-2.965985391123839,55.49656884056678,8.192684182541901e-05,-6.40353706737219e-05,-6.7410124415361e-05
219.90795156003108,-26.733225421071275,-2.968619448576505,55.5032411488955,0.0004032330025184685,0.0002960730860881972,0.0007312641900168576
219.57511568305088,-26.596939103592703,-2.939209436762341,55.53205150743976,0.0005749432857375233,0.0005485907540391558,0.0012625585299561315
218.8875268691285,-26.30547427643537,-2.8885102496441046,55.572296696025546,0.0005281662033137132,0.0005942418281097111,0.001316854814559489
218.10377313699328,-25.968357902261182,-2.835677001373613,55.6086723280565,0.0002769729354926804,0.0004116838145603287,0.0008645850204436571
217.52419126761546,-25.71469630797848,-2.801034323817638,55.62708820374233,-8.552319078337586e-05,6.7145241503627e-05,7.088907196782512e-05
217.37586557778528,-25.64376897235502,-2.7982639174276853,55.62012102993971,-0.0004216231169182471,-0.00030951416339421807,-0.0007645071827108556
217.72377682192038,-25.786223351016858,-2.829010935581561,55.58999631924971,-0.0006013071330109007,-0.0005737020643281885,-0.0013203759795257755
218.44282042751362,-26.09101928794408,-2.8820318576397614,55.547905408865134,-0.0005524869243064421,-0.0006215562344076292,-0.0013774075587517185
219.26258160547124,-26.443621427413156,-2.937294551592231,55.509854448171055,-0.000289839688528155,-0.0004307135525121353,-0.0009045840268215909
219.86892785217552,-26.708993862625213,-2.973539966010521,55.49058243832114,8.927707184649774e-05,-7.040568433895925e-05,-7.454536453994475e-05
220.0242917339872,-26.78327507309571,-2.976453688635705,55.49785748829352,0.0004408518734610522,0.00032356533554956735,0.0007992611828724404
219.66062245584882,-26.63437354690042,-2.9443088908629775,55.5293565082053,0.00062887983658831,0.0005999627696151385,0.001380840992555095
218.90868518653596,-26.315636790302385,-2.8888599164672524,55.57337778528401,0.0005779274979509975,0.0006501260989532419,0.001440744572219694
218.05126236504927,-25.94683756067763,-2.8310560677380074,55.613181230260764,0.0003033040582916908,0.0004506228474569335,0.0009464333558529062
217.4169158872909,-25.669213666822024,-2.7931337735480115,55.633349167193046,-9.319536926444022e-05,7.382396959507685e-05,7.838795279693604e-05
217.25418021182853,-25.591420131252974,-2.790069415057787,55.62575265722846,-0.00046095751342012424,-0.00033825429027001665,-0.0008355948613811739
217.63432109734512,-25.747060515969018,-2.823675527779116,55.59281663616363,-0.0006577168236318366,-0.0006274254774584237,-0.0014440748000659471
218.4206567189183,-26.08037568625023,-2.881663740194962,55.54677646583514,-0.000604539485569988,-0.0006800091242678628,-0.0015069938727082343
219.31747137312797,-26.46611600365074,-2.942125589107718,55.50513982780795,-0.0003173937971788935,-0.0004714523491410744,-0.0009902185936212153
219.98111099740063,-26.756556929097435,-2.981802335506461,55.48403432166447,9.72852673542426e-05,-7.74077178755814e-05,-8.242623543554847e-05
220.1515678641904,-26.838028719532957,-2.9850250194884085,55.491966473770944,0.00048198002168500364,0.00035360997159541595,0.0008735800095641517
219.75420949248573,-26.675344569737227,-2.949891168924994,55.52640504751169,0.000687876062584243,0.0006561452031353466,0.0015102041839493462
218.93190200321843,-26.326784232482787,-2.889247441612442,55.57455669730446,0.0006323768224059769,0.0007112656648473844,0.0015762893638326303
217.9938858448049,-25.923324656253783,-2.8260053746432225,55.61811095391842,0.00033213794614314813,0.0004932445858267882,0.0010360292845848702
217.2996004623682,-25.619475019167595,-2.7844930154514165,55.64019760653075,-0.00010155426354197872,8.116491680175994e-05,8.667008145560274e-05
217.12105646335246,-25.534151211797635,-2.7811039278098377,55.6319150054989,-0.0005039612062550833,-0.0003696626368850206,-0.0009132916809705199
217.53641196770113,-25.70419782555112,-2.8178349578884196,55.59590533754266,-0.0007194181796793457,-0.0006861794798320661,-0.0015793617311141953
218.39633681507618,-26.068700575824167,-2.8812558012832854,55.545545376251766,-0.0006614959269131536,-0.0007439588490404723,-0.001648771105681812
219.37744728261046,-26.49069332496419,-2.947405923659727,55.49998518759152,-0.00034756689451400253,-0.0005160440510953473,-0.0010839591146352301
220.10379348712823,-26.80857066587003,-2.9908388103314625,55.47687178621442,0.00010601018196941428,-8.510393864916393e-05,-9.112985353212401e-05
220.29080788501935,-26.89792845395317,-2.994402787808994,55.48552029504971,0.0005269447813570501,0.00038644391639804305,0.0009548083395864201
219.8566403055469,-26.72018626131758,-2.9560019805848796,55.52317272515087,0.0007524065807938353,0.0007175884738761986,0.0016516860992717732
218.95737734259998,-26.339011964769945,-2.889676851824687,55.575842270489986,0.0006919558150803878,0.0007781547065277535,0.0017245855978619887
217.93119280872813,-25.897634743920236,-2.820484958844424,55.62350077161513,0.0003637124425920302,0.000539897294660937,0.0011341061026198158
217.1713053826331,-25.565082134234885,-2.7750427022732245,55.647688643177375,-0.00011066118769006007,8.92335588299711e-05,9.581643254217014e-05
216.9754191739565,-25.471499813128155,-2.771294920339324,55.638658086900236,-0.0005509764543514016,-0.0004039868755766647,-0.0009982120147828998
217.42925066459426,-25.65728576754273,-2.8114414017069445,55.599287957742106,-0.0007869075788854065,-0.0007504351052427987,-0.0017273222948886722
218.36965121026597,-26.055894089052806,-2.880803808163268,55.544202911663916,-0.0007238182200172784,-0.0008139223016593758,-0.001803886075552654
219.4429805142743,-26.5175461822134,-2.9531773350363704,55.494349463416384,-0.0003806078671490231,-0.0005648530173805199,-0.0011865728007217362
220.23795791344193,-26.865451517249518,-3.000721913319131,55.46903718266759,0.00011551580148005925,-9.35629752616046e-05,-0.00010074124330311887
220.443136348313,-26.96345791727294,-3.0046628642259705,55.47846663670859,0.0005761040166007552,0.00042232608015407,0.001043588463302596
219.9687505470802,-26.769264268810055,-2.962691362423147,55.51963281991392,0.0008229905272732951,0.0007847851735750368,0.0018064219638652722
218.98533064174862,-26.352424573314913,-2.8901525962686527,55.57724414052433,0.0007571477170454728,0.0008513338729201623,0.0018868328191731646
217.86269073946457,-25.86956630949043,-2.814451141450051,55.629393620694145,0.00039828798996834004,0.0005909621706535616,0.00124146650410489
217.03100310805732,-25.505599521220176,-2.764706990190108,55.65588257024214,-0.00012058291529044407,9.810182866403741e-05,0.00010591628158195584
216.81609212928973,-25.402960078664577,-2.760563033378917,55.64603662619571,-0.0006023774384805448,-0.0004414976642156097,-0.0010910273386048898
217.31196294932144,-25.605941815023222,-2.8044425079402675,55.602992459979475,-0.0008607279590290551,-0.0008207074899719291,-0.001889143695522336
218.34037006577867,-26.04184669849449,-2.8803030842971253,55.542739011214735,-0.0007920118545486918,-0.0008904649788039402,-0.001973593478285568
219.51458588847944,-26.546885207521797,-2.959485487544595,55.488187759256135,-0.0004167892495665031,-0.0006182780604144273,-0.0012988994702533441
220.38467882031753,-26.92765489160052,-3.0115309613513848,55.460467452868784,0.00012587180836842607,-0.00010286022383022343,-0.00011135414243800467
220.60978350424207,-27.035146202153435,-3.0158882570512224,55.470748253687916,0.0006298489687209148,0.000461539401347017,0.0011406223679037548
220.09145482407095,-26.82297877806962,-2.9700140875172654,55.515756068857115,0.0009001957327576856,0.0008582740148070176,0.0019756533405049814
219.01600263355735,-26.367136760109844,-2.8906795903543934,55.5787728121669,0.0008284812908465448,0.000931394650391567,0.002064343410388145
217.78784150391735,-25.838899190447762,-2.8078561825036132,55.6358364452077,0.00043614977624366075,0.0006468564559296291,0.0013589891484531305
216.87756994067493,-25.440550943299534,-2.753402930229754,55.664845337726405,-0.00013139216407659382,0.00010784875191622288,0.00011706804996461481
216.64178856103266,-25.32797861237836,-2.7488214417913905,55.65411050480547,-0.0006585732382772516,-0.0004824907790096721,-0.0011924715372476878
217.18359198273342,-25.549747308055913,-2.7967809697066395,55.60704946732419,-0.0009414731850620652,-0.000897560001853987,-0.0020661243432411793
218.3082412386939,-26.02643828334425,-2.879748463326796,55.5411427066893,-0.0008666299373694423,-0.0009742055509407149,-0.0021592660352842
219.5928259064939,-26.578940524908447,-2.9663802911250032,55.48145098961518,-0.0004564094706174136,-0.0006767557036219148,-0.001421858419885402
220.54513130809502,-26.99567880676097,-3.0233527018044652,55.451093622355856,0.00013715408744010378,-0.00011307851379981939,-0.00012307188849850588
220.7920952356342,-27.11357212429767,-3.0281697837422152,55.46230250679828,0.0006886073689357652,0.0005043930762892526,0.001246677285007
220.225754157767,-26.881767775887113,-2.978030113755607,55.51151042557946,0.000984643289997071,0.000938644149007819,0.002160738089621095
219.04965741121916,-26.383274320555984,-2.891263264068998,55.58043973750064,0.0009065351084246622,0.0010189841428096288,0.0022585532057421034
217.70605712944226,-25.805392850665193,-2.8006479034590956,55.64288056977283,0.00047761008580163853,0.0007080368461534343,0.0014876358488215783
216.70977702654815,-25.36941560550519,-2.741039802683307,55.67464908324878,-0.00014316812345327142,0.0001185611445587533,0.0001293802353688465
216.45110075622128,-25.24595001131253,-2.7359751522353557,55.66294524668771,-0.0007200110868699632,-0.0005272894451707466,-0.0013033467041503005
217.04309052152288,-25.48824404086166,-2.7883940554880056,55.61149251565131,-0.00102979282583381,-0.0009816087559032993,-0.0022596842705940867
218.27298811974552,-26.009537105756827,-2.879134238319745,55.53940204082669,-0.0009482776778569857,-0.001065820862051871,-0.002362405595195516
219.6783151654764,-26.613963553591425,-2.9739162960318355,55.474085488621796,-0.000499795313399471,-0.0007407637470109524,-0.0015564559454338029
220.72060044307668,-27.07006787649732,-3.0362820086123543,55.44084024529786,0.00014944527617829508,-0.00012430883912213598,-0.00013600839526166234
220.9915439259643,-27.199368895123214,-3.0416068055277075,55.45306085446505,0.0007528468413736825,0.00055122499549974,0.0013625917537093725
220.3727441476773,-26.94611062034241,-2.9868050745803947,55.506860795516346,0.0010770125494690812,0.001026539888746499,0.0023631612624120772
219.0865846926363,-26.400975215422974,-2.8919096152738897,55.58225740121135,0.0009919422429212812,0.0011148103010345646,0.0024710331032671245
217.61669518903474,-25.768784495551557,-2.792769274566105,55.65058210830752,0.0005230108734874339,0.0007750032208473006,0.0016284594407577396
216.52628051578202,-25.29162398596705,-2.727518389170698,55.685372712560095,-0.00015599702867026858,0.00013033437915117027,0.00014297243627885365
216.2424886900188,-25.156211978292013,-2.7219202347634566,55.67261254999873,-0.0007871799290066416,-0.0005762468837971436,-0.00142452947984976
216.88931237730858,-25.420930526668606,-2.7792130956897836,55.61635833064631,-0.001126397378830542,-0.001073527552689301,-0.002471376524281382
218.23430726180587,-25.990998688329782,-2.878454105802012,55.53750397829141,-0.0010376172956990306,-0.0011660513994488399,-0.0025846552799352654
219.77172518216318,-26.65222897807903,-2.9821531241975388,55.46603258264943,-0.0005473046087759323,-0.0008108251698450047,-0.001703793574369596
220.9124915475838,-27.151417669902834,-3.050422643531922,55.429624797359736,0.00016283536376408576,-0.00013665116120798902,-0.00015028922777499338
221.2097403487526,-27.293229233526013,-3.0563080311385047,55.44294829658564,0.0008230786233992149,0.0006024044061020901,0.0014892822469833342
220.53362390680425,-27.016531948357745,-2.996410816174863,55.501768746064826,0.001178046583644123,0.001122665872092129,0.002584547014219951
219.12710230410377,-26.420390746305976,-2.892625268474225,55.584239413529644,0.0010853954024060619,0.0012196476440981265,0.0027035017692004387
217.51905375931935,-25.728787012869027,-2.7841579639037155,55.659002410901905,0.0005727265831399081,0.0008483027263803066,0.001782612395365215
216.3256108018119,-25.206553277156722,-2.712730176518993,55.697102534519686,-0.00016997278576039014,0.0001432732262742183,0.00015797648005913545
216.01426759016098,-25.058039975375863,-2.706542982138437,55.68319086884577,-0.000860614310974394,-0.0006297490950256772,-0.001556977979378914
216.72100306888078,-25.34725790979867,-2.769162920608583,55.62168713114772,-0.0012320639849470408,-0.0011740532790358567,-0.0027028996239534687
218.1918657787306,-25.970664583211246,-2.8777011040470404,55.5354343086467,-0.0011353733909547558,-0.001275707277867664,-0.002827812773148142
219.8737896630786,-26.694036900471446,-2.991155940691117,55.457228123064425,-0.0005993291847224591,-0.000887512402278654,-0.0018650770772562645
221.12234145284984,-27.240379478627545,-3.0658880887170312,55.417357011608786,0.00017742234304929448,-0.00015021529068382725,-0.00016605278605312176
221.44844667436334,-27.39591095799524,-3.072392396143509,55.43188276598789,0.0008998616328566391,0.0006583348212064923,0.0016277504137477412
220.70970584096582,-27.09360595229569,-3.0069259854896533,55.49619218914766,0.0012885581637473212,0.001227792710460362,0.002826671633721922
219.17155890448763,-26.441686844565375,-2.893417539618068,55.58640061152195,0.0011876525471506915,0.001334343518297131,0.002957839537345644
217.41236591181158,-25.68508672310255,-2.774745844498873,55.66820855238119,0.0006271672338236181,0.0009285342449661779,0.0019513562474269763
216.1061607538181,-25.113522400650652,-2.6965564860668296,55.70993295564095,-0.00018519765171227747,0.0001574927785379023,0.00017453766500234334
215.76459433267414,-24.950641374896804,-2.689718990067928,55.69476604985083,-0.0009408986332496354,-0.0006882178993675239,-0.001701739363302247
216.5367895913906,-25.26662549167653,-2.758161245209565,55.62752296133097,-0.001347642679249137,-0.001283991814324489,-0.0029561111879081252
218.14529849234825,-25.94836102237693,-2.8768675450350125,55.53317754061203,-0.0012423388199212118,-0.0013956747861976842,-0.0030938448585534173
219.9853102625979,-26.73971519181987,-3.0009959689962837,55.447601975380195,-0.0006562980957963494,-0.0009714520008357465,-0.002041626331824656
221.35183080484003,-27.337665530090604,-3.0828024572809216,55.40393815212022,0.0001933129201443784,-0.0001651218556722189,-0.00018345160833961724
221.70959069921494,-27.508243104215666,-3.0899900250028063,55.41977446255309,0.0009838069145777994,0.0007194571991831038,0.0017790909938091809
220.90242635193547,-27.177961060453583,-3.0184366739193997,55.490085033596316,0.0014094362970824713,0.0013427631652002214,0.003091477792441432
219.22033697315445,-26.465045484697384,-2.894294507539591,55.58875716947934,0.0012995430359916647,0.0014598249447749698,0.0032361036157770476
217.29579369425076,-25.637340921773223,-2.7644584556341325,55.67827386645055,0.0006867817991821111,0.0010163532861608864,0.0021360719155882773
215.8661728480566,-25.011786555517475,-2.6788675214099014,55.72396723979561,-0.00020178297474063322,0.00017311946525185007,0.0001928161278077242
215.4914525590311,-24.83314906087893,-2.671312150919305,55.7074320286908,-0.0010286717996998449,-0.0007521142611740057,-0.0018599581121818542
216.3351692190743,-25.178375834301235,-2.7461179956800468,55.63391405447557,-0.0014740632279957324,-0.001404224489732785,-0.0032330428349735016
218.09420480323357,-25.923897437613363,-2.875944939438126,55.53071678682416,-0.001359381124444227,-0.0015269235497408968,-0.003384903325732571
220.10716287400712,-26.789622060948084,-3.01175105418163,55.43707746075076,-0.0007186811593291182,-0.0010633297659062967,-0.002234886120352065
221.60279752151186,-27.44405468839524,-3.1013014891517745,55.38926021943607,0.00021062328669256645,-0.0001815033650706308,-0.00020265380595133877
221.99528141228328,-27.631132617534945,-3.1092432836184347,55.406525124601174,0.0010755825015167423,0.0007862534178586789,0.001944500468180955
221.11335755166746,-27.270285059596418,-3.0310371218956416,55.483396804483434,0.0015416533774909574,0.0014684989024181226,0.0033810901288686065
219.27385608717148,-26.49066623413728,-2.895265092722661,55.59132671921937,0.001421974351614231,0.0015971061109191138,0.0035405447238475276
217.16842155482092,-25.58517519445776,-2.7532144140874806,55.689278529674,0.0007520619077477191,0.0011124773407997365,0.0023382709989950164
215.60372509508701,-24.90053125670081,-2.6595213269480746,55.73931833918847,-0.00021984999994252856,0.00019029216663696822,0.00021298834909446287
215.1926363945856,-24.704614429187735,-2.651173552776256,55.72129159226351,-0.0011246323003111245,-0.0008219419203989644,-0.002032885069819285
216.1144972502153,-25.081789401277746,-2.732934572249711,55.64091323131771,-0.00161234260690324,-0.0015357151521698626,-0.003535916482098714
218.0381452585451,-25.89706483763947,-2.874923913922058,55.528033638250406,-0.0014874495667998534,-0.0016705143658723737,-0.003703342371971603
220.240304502886,-26.844148860842587,-3.023506278413439,55.42557074535799,-0.000786992827469102,-0.001163896343046969,-0.0024464379486429703
221.87725150924953,-27.56039868856908,-3.1215336402105684,55.37320508148592,0.00022947996034570497,-0.00019950537613141334,-0.00022384464292516228
222.3078260245736,-27.76557167431352,-3.1303079308953237,55.39202723162829,0.0011759187291705232,0.0008592500709894339,0.0021252865130927676
221.34422008311097,-27.371330701273095,-3.044830490160492,55.47607222626375,0.001686273006448999,0.0016060078801695033,0.0036978322921834535
219.33257651575158,-26.518767952655928,-2.8963391441296356,55.59412848118957,0.0015559394592829345,0.0017472965661042056,0.0038736252940246895
217.02924915769873,-25.528180483500158,-2.7409247706514694,55.7013101999361,0.0008235458946858989,0.0012176917410890423,0.0025596081427670973
215.3167156502361,-24.778865815689457,-2.6383626488793173,55.75610980328892,-0.000239530746091771,0.00020916343732546886,0.0002352488108153289
214.86573263683837,-24.563999729914734,-2.6291402749332082,55.736457212662955,-0.0012295437678629122,-0.0008982513612507748,-0.0022218873266883687
215.87297359443417,-24.976078692737467,-2.7185030422463763,55.648578336275875,-0.0017635931807917704,-0.0016795178895161035,-0.003867162168367303
217.9766377876297,-25.86763402858716,-2.8737941199819463,55.52510802732678,-0.0016275828271816019,-0.0018276077764127145,-0.004051737640866643
220.38578077670203,-26.903723154575744,-3.0363546336752174,55.4129901728308,-0.000861796426966182,-0.0012739733538196423,-0.0026780129832617372
222.1773907562866,-27.68762895401973,-3.1436612734485587,55.35564352297607,0.0002500206994403779,-0.00021928777655537564,-0.0002472282750094548
222.64974859904945,-27.912645691249374,-3.153354378625573,55.376163131928564,0.0012856140455497966,0.0009390226168994784,0.0023228783323490836
221.5968971521415,-27.48192183760174,-3.059929704030954,55.468050766282474,0.0018444585476993383,0.0017563924272154374,0.004044245582280882
219.39700316262807,-26.5495906557772,-2.897527534915599,55.597183407339884,0.001702524858679348,0.0019116101880008861,0.004238039385732041
216.87718353360734,-25.465909883458238,-2.72749230684662,55.714464714469315,0.000901823238345866,0.001332856074699563,0.0028018945734252774
215.0028459840992,-24.64581621130371,-2.6152216895030564,55.774476773031964,-0.00026096895982699033,0.00022990084984911524,0.0002598118208228897
214.50810126973298,-24.410169690190017,-2.605034070086343,55.753051959728666,-0.001344241052739671,-0.0009816441489783967,-0.0024284590216070703
215.60862809295256,-24.860381826353127,-2.7027052567857757,55.656972715149465,-0.0019290316503923419,-0.0018367854790732226,-0.004229437548390343
217.90915357326256,-25.83535366273317,-2.872544133452336,55.52191807881128,-0.0017809174262002757,-0.0019994734459755233,-0.004432907051635002
220.54473414948754,-26.96881206475637,-3.0503977570100904,55.39923553438281,-0.0009437088016186916,-0.0013944601062255014,-0.0029315062128105088
222.5056189319474,-27.826764051762595,-3.167861961700157,55.33643420559933,0.0002723954983979986,-0.00024102619230952126,-0.00027302966399697214
223.02381043142228,-28.073542087323197,-3.1785690698852314,55.3588040880237,0.0014055413629030032,0.0010261999119456707,0.0025388379496282375
221.87344988500692,-27.60296013652477,-3.076458377560737,55.459266134884516,0.0020174824842119827,0.0019208580780829237,0.004423109335598519
219.46768989000466,-26.583397558035273,-2.8988422679310357,55.60051433681869,0.0018629193941264398,0.0020913749918960167,0.00463673447221371
216.7110305038357,-25.39787514020582,-2.712810766271472,55.7288468530035,0.0009875394181577462,0.0014589112052315336,0.0030671129149555556
214.65960247834906,-24.500317293545706,-2.589912744839703,55.794567068287975,-0.000284321154036584,0.0002526884698613363,0.0002869135213655512
214.11685414666366,-24.241882349808492,-2.578659922563552,55.771210499571964,-0.0014696368641891264,-0.001072777668932982,-0.002654233146945415
215.31930445215025,-24.733755512140362,-2.685411883868994,55.66616573823272,-0.0021099888382632593,-0.0020087786269255992,-0.004625649211423938
217.83511252328688,-25.79994809891908,-2.871161343743421,55.51843994725179,-0.0019486969406806707,-0.002187500422064503,-0.004849933587551843
220.7184128659214,-27.03992593272048,-3.0657467340960256,55.384197270857584,-0.0010334053956180126,-0.001526340939523701,-0.0032089919490532093
222.86456463259978,-27.9789178450813,-3.1943299124019067,55.315422530699465,0.0002967676709434014,-0.00026491353347517254,-0.0003014966849949844
223.433032346347,-28.249559869083193,-3.206155987091095,55.33980923215675,0.0015366550017054587,0.001121469164498204,0.0027748725498924626
222.17613413649448,-27.73543243125532,-3.094551825160017,55.44964573799868,0.002206736652720212,0.002100723235227548,0.004837463220249067
219.5452442609791,-26.620477313415073,-2.9002965920073454,55.6041461656405,0.002038423894626931,0.0022880438622807646,0.005072935276584769
216.52948531049614,-25.32354282629411,-2.6967640145154155,55.74457117211293,0.0010814012338856158,0.001596886956371263,0.0033574334066654283
214.28423629952445,-24.341204258126496,-2.562232714637238,55.816542377350785,-0.0003097577378389192,0.0002777284759867219,0.00031681409996760224
213.6888316700994,-24.057779035702886,-2.549804470933421,55.7910801871794,-0.0016067290308404733,-0.001172370305212265,-0.0029009944505885964
215.0026426594342,-24.59516736379868,-2.6664813499776345,55.67623337316094,-0.002307920392511152,-0.0021968760722510536,-0.005058975997197452
217.75387830401584,-25.761115056499307,-2.8696318317602447,55.514647639870034,-0.002132282087470288,-0.002393208359818459,-0.005306190227772281
220.90818075508568,-27.11762231609646,-3.0825229775037,55.36775560033003,-0.0011316258196564215,-0.001670693263402371,-0.003512740794640898
223.2571024283857,-28.145308408860693,-3.223277525807057,55.29243939523951,0.00032331502885710227,-0.0002911616916352411,-0.000332902445986891
223.8807190890246,-28.44212011663332,-3.2363383019135394,55.3190244233773,0.001679998282133777,0.0012255813484354067,0.003032847967360761
222.50741888584847,-27.88041876380401,-3.1143581689488666,55.439110077680084,0.0024137434381347475,0.002297429735724403,0.005290631619270783
219.6303327409045,-26.661146471990477,-2.901905130119932,55.608106031576526,0.002230461721869971,0.0025032062934140153,0.005550169849796948
216.33112237957081,-25.24233016264308,-2.679225120996004,55.761762917401825,0.0011841826300443752,0.0017479105224771866,0.003675231655447089
213.87374138968048,-24.16720332344569,-2.5319594728119936,55.84057955801369,-0.00033746424620311605,0.00030524293845120287,0.0003498002229913597
213.22057727954976,-23.85637339434647,-2.518234282236455,55.8128222619557,-0.001756608438219604,-0.0012812070996541746,-0.0031706935365321785
214.65605973806166,-24.443487483939265,-2.6457586815082497,55.687258812215774,-0.002524418494392273,-0.002402585637549696,-0.005532894495451603
217.66475289302272,-25.71852304290782,-2.867940235356178,55.510512823556,-0.0023331617570118294,-0.0026182598020959204,-0.005805367224128012
221.11552793066792,-27.202510356026856,-3.1008591865768613,55.34977956431909,-0.0012391799456385726,-0.0018286963571379745,-0.0038452382161842475
223.68637587921384,-28.327267778936438,-3.2549370991558666,55.2672998310654,0.00035223116465081354,-0.00032000340362924734,-0.0003675478409731481
224.37048600913133,-28.652777454958382,-3.2693601803886096,55.29628099694655,0.0018367118233939992,0.0013393571187672588,0.0033148034265473754
222.87000637040902,-28.039101188130026,-3.1360395509031562,55.427572095663464,0.0026401680178573077,0.0025125544071607333,0.005786250297555444
219.72368640205812,-26.705752173606818,-2.903684020634155,55.61242351563082,0.002440590311720862,0.002738601233720133,0.006072298101375355
216.11438413650322,-25.153600453867774,-2.660055355465752,55.78055902079063,0.0012967310734474625,0.0019132156742633708,0.004023108067607361
213.42483039771483,-23.976921535418533,-2.4988500852513305,55.86687206070201,-0.0003676426779590327,0.0003354757720290323,0.0003861877142070048
212.7083095419109,-23.63603939356554,-2.483693963881999,55.8366131559052,-0.001920467706381059,-0.0014001459357259349,-0.0034654622754480046
214.27672868402337,-24.277479254630748,-2.62307423656842,55.699333159266374,-0.0027612246639418282,-0.0026275563133386155,-0.00605120693369783
217.56697060485274,-25.671808533015344,-2.8660696010559983,55.50600461455022,-0.002552965086130406,-0.002864473614117148,-0.006351501943446506
221.34208248148033,-27.295255548218755,-3.1209003965196613,55.33012598501922,-0.0013569545801889367,-0.002001641000583,-0.004209204874543426
224.15582270425878,-28.526252613477077,-3.2895626904723034,55.23980151651644,0.0003837268472890948,-0.00035169429795338337,-0.00040576436010527836
224.9062882524992,-28.883232603171116,-3.305488757827481,55.27139439591815,0.0020080426168998184,0.0014636932759532345,0.0036229676527598656
223.26685412111303,-28.212773404649887,-3.1597734597087648,55.41493645451138,0.002887831754457017,0.0027478217053296407,0.006328295566326991
219.8261071802796,-26.75467510146367,-2.90565107296106,55.617130861586574,0.002670513802762188,0.0029961311377978543,0.0066435430136121965
215.87756878667037,-25.056658101523148,-2.639103091259347,55.801109190840734,0.0014199745364063467,0.00209415283473894,0.004403909119155452
212.93390835869715,-23.768835618566733,-2.46263886068159,55.89563148511142,-0.0004005129517094144,0.0003686948803602935,0.00042632450292501463
212.14789161887197,-23.394998196924448,-2.4459040979415665,55.86264592506261,-0.0020996106766607786,-0.0015301242959851894,-0.003787630646899692
213.86155541327403,-24.095789258219348,-2.598242316760107,55.712556182014396,-0.003020243766608268,-0.0028735914741487272,-0.006618071676862438
217.45969153870382,-25.620572876345655,-2.8640012206563785,55.501089349265,-0.002793474667910725,-0.0031338396812088283,-0.006949011516682759
221.58962324392988,-27.396584955153322,-3.1428051249802715,55.3086383252507,-0.0014859207719127333,-0.0021909400156122326,-0.0046076188785718125
224.6692023064522,-28.74385585171283,-3.327432156938417,55.20972314840873,0.00041803154087682133,-0.00038651514167275906,-0.0004479171825643828
225.49245269621602,-29.13534610296574,-3.345016299494592,55.24416267379445,0.0021953539454497542,0.0015995698297976094,0.003959776479260523
223.70119907949348,-28.402851304610458,-3.1857541831781813,55.401098750425206,0.003158726844406959,0.003005117534992006,0.0069211161790728995
219.93847473693418,-26.808332720655486,-2.9078259390836054,55.62226321523937,0.0029220968542667198,0.0032778773395732473,0.007268524791598884
215.61881696495672,-24.950743156250148,-2.6162026066155106,55.823577104796996,0.0015549291430889008,0.002292200107665814,0.0048207506384696595
212.3970439105021,-23.54127978415835,-2.423035218965604,55.92708928287617,-0.00043631448998797916,0.0004051945103582797,0.00047059386869707787
211.53479786488785,-23.13130380474722,-2.404558981133106,55.8911318157848,-0.0022954627829866636,-0.0016721666463028481,-0.004139745146187197
213.40715353137577,-23.896936246293684,-2.5710596475943577,55.727037135749754,-0.0033035593335265854,-0.0031426633317244803,-0.007238036583424837
217.3419943921991,-25.564378905913628,-2.8617144511711503,55.495730334556484,-0.0030566410057571,-0.0034285349884012,-0.00760272855884616
221.86009375654587,-27.50729290023466,-3.166746625190081,55.28514544205322,-0.0016271418125852963,-0.002398139804089953,-0.005043740144274637
225.23062587229745,-28.98181946330483,-3.3688493841978255,55.176822661292405,0.00045539505709833424,-0.00042477430745802925,-0.0004944085805055265
226.13371288495816,-29.41115333707893,-3.388262564527885,55.21436485611176,0.002400136227278254,0.0017480577185229802,0.004327892090108452
224.1765839927847,-28.610884510245818,-3.2141943981105303,55.38594465122385,0.0034550323406779496,0.0032865043644528633,0.007569468214734859
220.06175398471416,-26.867182829141896,-2.9102303025614598,55.62785888507868,0.0031973797656243445,0.0035861168708029778,0.007952298225213532
215.3360971497966,-24.835025366199837,-2.5911727746027036,55.84814171183659,0.001702707542003223,0.0025089753485725763,0.005277043291715906
211.80993781733972,-23.292432397836812,-2.3797213597296967,55.96149861996568,-0.00047530794291012575,0.00044529783725428835,0.0005194180122863991
210.86407728606414,-22.842827345886164,-2.359324152219438,55.92230197860884,-0.0025095823902165013,-0.0018273925049687618,-0.004524588901149608
212.9098167198758,-23.679299066909962,-2.5413037151069524,55.74289566541434,-0.0036134503186273847,-0.0034369287412398934,-0.007916075485566164
217.2128685799772,-25.50274721992087,-2.8591865164342067,55.4898875756098,-0.0033445983288148346,-0.0037509412117910316,-0.008317940248531708
222.15561750593113,-27.628247188427473,-3.192914255559492,55.25946022400251,-0.001781781998157567,-0.0026249329765548916,-0.00552113705855595
225.84458928795422,-29.242048390375757,-3.414146724471281,55.14083527965717,0.0004960893531353698,-0.00046681048227374114,-0.0005456816652152424
226.83524725059985,-29.712880958970217,-3.435577392218069,55.181759147665716,0.0026240188712086778,0.0019103272437777478,0.004730224050609987
224.69688630231096,-28.838569004750667,-3.245326910600089,55.369348952378516,0.003779131678033482,0.003594237755064794,0.00827855322792087
220.19700334144446,-26.93172745126624,-2.9128880867843883,55.6339596263369,0.003498595019795178,0.003923340860810728,0.008700393565148672
215.0271897273722,-24.708597675173735,-2.5638156312979388,55.87499865789793,0.001864528073551193,0.002746249376872406,0.005776520479398671
211.16788854821814,-23.020301400054045,-2.3323497126185484,55.99913641379318,-0.0005177770635442212,0.0004893598028336277,0.000573261985571014
210.13031356495955,-22.527239893459182,-2.3098336868251783,55.95640934357773,-0.002743673189660926,-0.0019970252601900114,-0.004945203657751975
212.36548851431124,-23.441103451705317,-2.5087309450686446,55.76026279341562,-0.003952409427331702,-0.003758746487185047,-0.008657628085896846
217.07120558991292,-25.43515210477249,-2.8563922885030104,55.48351747943455,-0.003659681896966973,-0.00410366396379705,-0.0091004310830262
222.47851458362308,-27.76039590204857,-3.2215149765512052,55.23137810140231,-0.0019511162217203505,-0.002873172174723047,-0.006043715665567337
226.51600913507994,-29.52662579376429,-3.463687663042138,55.101471387414364,0.0005404104878138525,-0.0005129956413476278,-0.0006022245097359151
227.60272092363974,-30.04296486632196,-3.487343531561889,55.146080970833054,0.002868783237174606,0.002087657287966147,0.005169952291414417
225.26634976065046,-29.087760954981533,-3.27940656102885,55.35117454331379,0.004133631841952583,0.003930784438107542,0.009054059972099883
220.34538378224786,-27.002517106842134,-2.9158256844226056,55.640610950494036,0.003828185384904368,0.0042922746661139795,0.009518861243473875
214.6896695810764,-24.57046911961607,-2.533914810906338,55.90436184343015,0.002041724808141092,0.0030059604369476046,0.006323268872135942
210.46575463479766,-22.722708362643935,-2.2805401487246835,56.04030556142527,-0.0005640307482978526,0.0005377702316186985,0.0006326380163012776
209.32758132858376,-22.18199366586584,-2.2556872377956245,55.9937306722463,-0.0029995977503538404,-0.0021824018053796393,-0.005404913808031635
211.76972922746924,-23.18040755523905,-2.4730747098961645,55.77928200134109,-0.0043231631642182,-0.004110696187432423,-0.00946864359072974
216.9157895032848,-25.361017064841725,-2.8533040468185247,55.47657253179028,-0.004004446935695085,-0.004489553847795641,-0.009956529654675708
222.83131988439843,-27.904774824875368,-3.2527749866570916,55.200675417494566,-0.0021365404774186135,-0.003144885200653185,-0.006615751614293947
227.25026205456876,-29.837829725502054,-3.517869734501298,55.0584141975161,0.0005886807498413377,-0.000563738313356901,-0.0006645746856263467
228.44233147399123,-30.404069863418655,-3.5439797369715755,55.10704081907909,0.003136376805163657,0.0022814453864443123,0.005650552227711233
225.8896190353225,-29.360491839514893,-3.3167123093255784,55.331271275448,0.004521384335323179,0.004298842083890737,0.00990221003039225
220.5081687672304,-27.080155492008934,-2.9190722102186952,55.64786246251576,0.004188823720724574,0.004695899892573487,0.010414320800309542
214.32088706980525,-24.419557068893106,-2.501233835458198,55.93646512646326,0.0022357585375150104,0.003290230026257999,0.006921761835325045
209.6979135073266,-22.39727105395952,-2.223876930823793,56.085337376819226,-0.0006144052567722338,0.0005909572521715966,0.0006981102672137061
208.4493983065545,-21.804301461360566,-2.1964467971635493,56.0345688030113,-0.0032793923338208944,-0.0023849830680675683,-0.0059073526500987815
211.11767974827197,-22.895086128735116,-2.434043146961141,55.800110414496785,-0.00472869376087099,-0.004495598966957476,-0.010355628429829289
216.7452865980995,-25.27970992107793,-2.849891212871709,55.469000945165774,-0.004381689354304585,-0.004911729492242004,-0.010893159826711032
223.21680298863177,-28.06251555264609,-3.2869415104035147,55.167107647722304,-0.002339583361805924,-0.0034422915760856116,-0.007241925128586037
228.05322779327858,-30.178151360921987,-3.5771277121445255,55.01131720296232,0.0006412509732048009,-0.0006194871652993022,-0.000733324255282634
229.36085895038767,-30.799111171094076,-3.6059441551748117,55.064321908239165,0.0034289286652448327,0.0024932187338513627,0.006175822211836136
226.57177758107176,-29.658985005325285,-3.357549517547981,55.309474722633524,0.00494550811150373,0.004701360921484777,0.010829807719904674
220.68675512928567,-27.165304611543228,-2.9226597794814406,55.655768228303046,0.00458343465061197,0.005137478487986765,0.011394014412192795
213.91794724601797,-24.254678748160472,-2.4655142455716565,55.9715641845536,0.002448228809793262,0.0036013802196888877,0.007576896015982295
208.85821647915063,-22.041384373065114,-2.161905377952048,56.134594256695735,-0.000669266626797233,0.0006493910533409133,0.0007703000729404573
207.48867299319025,-21.39111416020718,-2.131633153538694,56.07925510797884,-0.0035852830901412875,-0.002606365515295663,-0.006456491087501931
210.40402192117952,-22.58281319927479,-2.3913167704516063,55.8229200990437,-0.005172263160234034,-0.004916540066866192,-0.011325698445336691
216.55823394697498,-25.19053743690359,-2.8461200579002437,55.4607462752259,-0.004794468415470983,-0.005373602750373263,-0.011917896722295158
223.63798988450608,-28.234854353393565,-3.324284752510601,55.13040745287253,-0.0025619186673395203,-0.003767820667138398,-0.007927359285551577
228.93133627832,-30.55031493628625,-3.6419370961058677,54.9598013886892,0.0006985030561112307,-0.0006807349382950741,-0.0008091252653712241
230.36572062236408,-31.23127795784533,-3.6737380306941274,55.01757760652319,0.003748766451842839,0.0027246462111932806,0.006749913536008697
227.31838908947847,-29.98567378798608,-3.402252448458408,55.2856048237708,0.005409414658161546,0.005141567382312015,0.011844294669827832
220.88267501479797,-27.258690406136786,-2.9266238148794934,55.664387175053534,0.00501521827458292,0.005620579099772987,0.01246586545491857
213.47768715072354,-24.074541977511046,-2.426473557513941,56.00993855042465,0.0026808871073293918,0.0039419526315670455,0.00829403139088871
207.93993951946956,-21.652199500425098,-2.0941282175704874,56.188472596493895,-0.0007290133017277449,0.000713588008188118,0.0008498917024814291
206.43764739102946,-20.939096112843018,-2.0607220162720234,56.12815218129646,-0.003919703764079056,-0.002848293726040756,-0.007056668994520655
209.62293518314002,-22.241043113311363,-2.3445458572524966,55.84789948243109,-0.005657439250333482,-0.0053768935698879985,-0.012386635968409413
216.35302691243467,-25.09273942584268,-2.841953380890102,55.451747002906984,-0.005246131539880765,-0.005878906269084822,-0.013039027979469337
224.0981867002865,-28.423141846915513,-3.3651000336432313,55.090282550603064,-0.0028053791717063724,-0.0041241315223223725,-0.008677661915270073
229.8916190957166,-30.957299551466647,-3.7128179282070404,54.903452181908435,0.0007608527012796405,-0.0007480227686153243,-0.0008926957914640252
231.46503086673337,-31.704059082022987,-3.7479097598707165,54.9664286223974,0.004098434856904035,0.002977551528327361,0.007377363222049892
228.1355428537722,-30.34322134303278,-3.45118700052988,55.25946439639823,0.005916835433589475,0.005622989957045362,0.01295380951099351
221.09760897896845,-27.361108922341458,-2.931003384393986,55.67378352747559,0.005487676115763743,0.006149105910695285,0.013638542574340204
212.99665100748197,-23.87773505496905,-2.383803030422224,56.051893837505645,0.002935651275876029,0.004314729170140445,0.00907903510346877
206.93572942029832,-21.226601098262293,-2.0200015960555966,56.24740597986846,-0.0007940789885688684,0.0007841152015232384,0.00093763869976414
205.2878343735603,-20.444598215422346,-1.98313977505215,56.18165678075721,-0.0042853150520645086,-0.0031126741296033248,-0.007712629494986667
208.7680491046112,-21.866989790054333,-2.2933475854633913,55.8752549088472,-0.006188124558315213,-0.005880349440449066,-0.013546952241307324
216.1279054330851,-24.985482290935927,-2.837350153882558,55.441936079093,-0.005740341447047395,-0.006431723649710338,-0.014265620767245978
224.6010056326078,-28.62885357908828,-3.409710124625704,55.04641338841262,-0.003071971736513569,-0.004514134585820468,-0.009498971464389864
230.94176578549295,-31.40236301213276,-3.7903389641231566,54.841816116362565,0.0008287523969429025,-0.0008219449315785042,-0.0009848265889536665
232.66766668199867,-32.221271252850244,-3.8290593262159947,54.910459927533694,0.004480715869150279,0.0032539275852692525,0.0080631298569219
229.02990341864088,-30.734542350069,-3.504753701752721,55.23083750899626,0.006471851876117652,0.00614948747299398,0.014167253155576319
221.33340034732205,-27.47343307747503,-2.9358415735766443,55.68402728305787,0.00600463951054938,0.006727330185584952,0.014921529783142144
212.47106312106584,-23.66271570420306,-2.3371652260459097,56.09776417308079,0.0032146213238615235,0.00472275475394766,0.009938329447799496
205.8375449267335,-20.761182378154018,-1.9389307155149011,56.31186866738757,-0.0008649357671125929,0.000861595400485124,0.001034370860046296
204.02994916151337,-19.903628455445237,-1.8982588606436397,56.240203046533324,-0.00468502576392987,-0.0034015900180713937,-0.008429556425227072
207.8323914477934,-21.45760401568633,-2.2373029021489526,55.90521234251584,-0.006768587635526789,-0.006430943095985066,-0.014815955685522244
215.88093898386236,-24.86785194118862,-2.832265131285765,55.43124042852881,-0.006281105852319483,-0.007036522444374307,-0.015607595104671768
225.15039327392347,-28.853601573725776,-3.458467797559294,54.99845059953326,-0.003363893839653709,-0.004941015463283354,-0.010398007198573174
232.09018540379876,-31.889067902220262,-3.8751222363310065,54.77439718366074,0.0009026946596013509,-0.0009031540496292692,-0.001086388410810539
233.98333935957655,-32.78708983754341,-3.917843152957577,54.849217389868585,0.0048986509003381825,0.0035559521653320495,0.008812632756968562
230.00876491974972,-31.162826766452405,-3.5633909867284936,55.19948769857825,0.007078928227925508,0.006725280018548075,0.015494360190451218
221.59207096571137,-27.596620076818766,-2.941185895576153,55.69519472988236,0.006570300672614834,0.007359924783932654,0.01632520315031328
211.89679826844255,-23.427799000520558,-2.286191341733683,56.147914858414666,0.0035200967218543032,0.0051693621755161,0.010878944392046813
204.6365923593091,-20.25221783637142,-1.8502650619292713,56.382379412497926,-0.0009420974720236678,0.0009467125114488682,0.001141001905665304
202.65383435955314,-19.311819689762537,-1.8053926692516904,56.3042660231484,-0.005122015957649853,-0.0037173179509910545,-0.009213115276850512
206.80833131868062,-21.009548593415666,-2.1759530947032104,55.93801923289129,-0.0074034973860099065,-0.007033087746431849,-0.016203826563425616
215.61001008226273,-24.73884602502347,-2.82664841955836,55.41958040933106,-0.006872809960818006,-0.00769819025449279,-0.01707580407563947
225.75066156105575,-29.09914695232596,-3.5117586139948678,54.94601222149653,-0.0036835516774560762,-0.005408260934145764,-0.011382124154219719
233.34607384483272,-32.421310095295354,-3.9678480444404345,54.70065284234143,0.0009832155613993731,-0.0009923668099440924,-0.0011983400587709664
235.42267289040214,-33.40608256315969,-4.014979412019771,54.782204089461885,0.005355564974441827,0.0038860050835830065,0.009631794770002602
231.0801105559087,-31.631565824094125,-3.627578783854549,55.165156018865645,0.007742947437188029,0.007354982762462133,0.01694577695674206
221.87583847294806,-27.731719545957212,-2.9470887427433077,55.70736901078038,0.007189246682596807,0.008052001917170828,0.01786091470334676
211.26934935010772,-23.17114418072011,-2.2304782955978824,56.20274527702601,0.003854595344639455,0.005658199315354461,0.01190857507073205
203.3232552131466,-19.69563343880779,-1.7532931863457768,56.45950563545685,-0.001026123371718807,0.0010402175707646677,0.0012585379309586163
201.14837794822242,-18.664394394913323,-1.7037900094692064,56.37436551325462,-0.005599762231021773,-0.004062345681325959,-0.010069497942556991
205.68751694954514,-20.519171146900113,-2.108796037785166,55.97394655713646,-0.008097960614435344,-0.007691609761010282,-0.017721698632176944
215.31279620010181,-24.597365414931566,-2.8204450032678494,55.406869224132066,-0.007520252021710436,-0.008422074223057938,-0.018682121587973888
226.4065215873056,-29.36741372039438,-3.570003972184761,54.88868065523674,-0.004033579985654534,-0.005919687422803822,-0.012459373288720623
234.71948746142473,-33.00334993294354,-4.069260412937169,54.61998965255593,0.001070898566983263,-0.0010903702413307473,-0.0013217372411715132
236.9972897398528,-34.08324638515763,-4.121253832369283,54.708876287273654,0.005855093172075398,0.004246686925550467,0.010527089053092194
232.25267767865554,-32.14458048117876,-3.6978424419382208,55.12755890294717,0.008469250427240723,0.008043642938948294,0.018533146941710727
222.1871352431326,-27.879882447162842,-2.9536078840081195,55.72064073796784,0.007866496678977295,0.00880915445568295,0.019541084221501217
210.58379204834168,-22.890740233653524,-2.1695855408318216,56.26269207425483,0.0042208742118513,0.00619325892838759,0.01303564471584654
201.88701717039496,-19.086974016937283,-1.6472369972603444,56.543867988808216,-0.0011176221699545196,0.0011429353214657406,0.001388086693125186
199.50142356913275,-17.956126105318724,-1.5926290269021033,56.45107029447158,-0.006122065371365507,-0.0044393917437537,-0.011005471618161716
204.4608076047143,-19.98247435546091,-2.0352820851302056,56.01329105673102,-0.008857563095397349,-0.008411787345674753,-0.01938174844470398
214.98674992679767,-24.442204871177765,-2.8135942231251674,55.393012278539004,-0.00822868223103553,-0.009214024239757692,-0.020439538386306563
227.1231205430092,-29.660503828151647,-3.6336644374839713,54.82599934052959,-0.004416863742349423,-0.006479472161062401,-0.013638567320986707
236.22142357354934,-33.639846319648655,-4.180173060114311,54.53175850125477,0.0011663787068572854,-0.0011980286050424114,-0.0014577423179272658
238.7199046834061,-34.82404782021074,-4.237526054694646,54.62863901416269,0.006401209540399286,0.0046408395236214265,0.011505590195270938
233.5360290298086,-32.70605256061103,-3.77475702835541,55.086385822793204,0.009263679048519338,0.008796780294914456,0.020269204167771178
222.52862915895443,-28.042370855362506,-2.960807012642907,55.73510866266618,0.008607542551648547,0.009637501119250718,0.021379299662250897
209.8347462155315,-22.584390158821357,-2.1030315840168488,56.328232633429266,0.004621952197908218,0.006778911245977497,0.014269373541288807
200.31637790974517,-18.42136761393269,-1.5312455184088578,56.636145351132015,-0.001217256358288685,0.0012557714331672548,0.0015308678334338514
197.69967237918408,-17.181297228128283,-1.4710105573451728,56.535002733490344,-0.006693080583067551,-0.00485142685942167,-0.012028432246818693
203.1181990545987,-19.395083378584843,-1.9548095726377994,56.05637768665851,-0.009688414494296808,-0.009199392841118221,-0.021197293013884424
214.62907721530493,-24.272042805471173,-2.806029201155426,55.377906482206996,-0.009003845298434293,-0.010080440207974944,-0.02236226709497877
227.9060820739186,-29.980713623391594,-3.70324338220661,54.75746912130744,-0.004836561931629669,-0.007092187296226793,-0.014929352800506623
237.86390850916743,-34.33589400696051,-4.301475926069571,54.435249379464494,0.0012703471165997123,-0.0013162909594533184,-0.001607635021156923
240.60442746051123,-35.63446706876919,-4.364736583805273,54.540841244329116,0.006998258698351037,0.005071568332237306,0.012575030088679606
234.94063070764534,-33.32055882888115,-3.858952033906408,55.041296726319956,0.010132623058640277,0.009620431323418605,0.022167875327538226
222.90324639279166,-28.220568676494665,-2.968756349488301,55.7508804046151,0.00941839346802973,0.010543735916021212,0.023390427032843938
209.01633369009076,-22.24969376991527,-2.0302901799185333,56.399888876296615,0.005061134898203232,0.007419939659654039,0.015619854143759802
198.59876103915119,-17.693486495671028,-1.4043880618978886,56.73708028923981,-0.0013257469500248305,0.0013797204279577466,0.0016882241215769138
195.72857568154402,-16.333652894275563,-1.3379508547604635,56.626843834865994,-0.007317350533284247,-0.005301697325571479,-0.013146462927270026
201.64874201051558,-18.752210204315148,-1.8667198959574325,56.10356229737282,-0.010597197501009677,-0.010060738980232596,-0.023182896623119065
214.23671352553285,-24.085430057896616,-2.797676207679415,55.36143948740559,-0.009852027022840415,-0.011028323755522767,-0.02446585714021128
228.7615503735482,-30.330551825136197,-3.7792909636871563,54.68254427192451,-0.005296133563480314,-0.007762837223253983,-0.016342288994100097
239.6600938820753,-35.0970643652651,-4.43414231212924,54.32968566964014,0.0013835559738476118,-0.0014461994643877128,-0.0017728242487560428
242.66607507532805,-36.52104628344706,-4.503914394969067,54.44477061405472,0.007650990388467243,0.005542266877929223,0.013743858989114809
236.47793749719872,-33.99310829299482,-3.9511165228474803,54.99191923086521,0.011083071508374325,0.010521197637743692,0.024244391483950502
223.3141963895067,-28.415993399039287,-2.9775333072282977,55.768073246820094,0.010305624592670202,0.011535182229395851,0.025590730595242257
208.12213220954632,-21.88402890885039,-1.9507861727168438,56.47823141796377,0.00554204185624935,0.008121579777830065,0.01709813403651454
196.72041341485564,-16.897504514674615,-1.2656467619169876,56.84748503275736,-0.0014438786289024882,0.001515874381207311,0.001861633825191101
193.572217466671,-15.406350473314347,-1.192373635254842,56.72733876544757,-0.00799984147852008,-0.005793750574051215,-0.014368397747114799
200.04045285548042,-18.048614631074436,-1.7702921223152055,56.15523457166384,-0.01159122157140815,-0.0110027294756437,-0.02535448763982661
213.80629766220974,-23.880777592056567,-2.7884539642463233,55.34348885950273,-0.010780105254677605,-0.012065334806869039,-0.02676732048064401
229.69623835485734,-30.712759158617786,-3.862408471966523,54.60062815274769,-0.00579936616416904,-0.008496899445691862,-0.01788893423525672
241.62436187736355,-35.92944996937243,-4.579236688963688,54.21421789713715,0.0015068238677255,-0.0015888984973078581,-0.0019548610378904256
244.921494650862,-37.49094237276673,-4.6561852556949805,54.339647642905845,0.008364597249983764,0.006056643476551717,0.015021312247905202
238.16048626018707,-34.72918301932755,-4.052004770216907,54.93784554992831,0.012122668946689705,0.011506298873669234,0.026515410231204038
223.76499926354884,-28.630308978240652,-2.9872232218605284,55.7868150013538,0.011276430395264101,0.01261985198978917,0.02799800437625182
207.14512505980318,-21.484530923409174,-1.8638909508234287,56.563884109414175,0.006068636375908251,0.00888956217430423,0.01871630599066919
194.66629504087834,-16.027050485857277,-1.1139084091463065,56.96824800915837,-0.0015725053486800433,0.0016654324729358013,0.0020527243167069997
191.21318591522098,-14.39190434461468,-1.0331013727230438,56.8373028992536,-0.008745982759285613,-0.006331463099792002,-0.015703891544894582
198.28021594335647,-17.278561565037876,-1.664737092515237,56.21182124064528,-0.012678481708849214,-0.012032914342629654,-0.02772948626859708
213.3341430845671,-23.6563430042226,-2.7782728760709023,55.32392117329532,-0.011795605657665546,-0.013199853473874923,-0.029285269162722432
230.71748027858317,-31.130329805100757,-3.953253081441477,54.511068460499544,-0.006350406971636016,-0.009300369298934415,-0.019581940441945334
243.77244038717825,-36.83971335464826,-4.737923236022123,54.087916895536495,0.0016410416383975772,-0.0017456446606052833,-0.0021554528360101556
247.38889782819953,-38.5519847663906,-4.822780830251592,54.224619410529755,0.009144756113506316,0.006618750427903683,0.01641748324178235
240.0019981457664,-35.534782806953075,-4.162442432558675,54.878629127828034,0.013259776896785695,0.012583630543792287,0.02899914929611111
224.25951584347925,-28.86533996212421,-2.9979201581238755,55.8072449525465,0.012338682979191419,0.01380651040928075,0.03063171604604207
206.07764606621672,-21.04807024805126,-1.7689174793880929,56.657529003750426,0.006645258164104449,0.009730159177484321,0.020487606922576566
192.41995866774172,-15.075157201040685,-0.947955520364762,57.10034099181961,-0.00171255642288759,0.001829711472757234,0.002263287040830342
188.63243282558344,-13.282125479220607,-0.8588457757717651,56.95762843181913,0.2956433190975264,0.7255729987994467,1.4173001404978116
186.41493403936556,-11.447262915584878,-0.13898652019436852,57.6946774570031,0.29141689133044435,0.7195235234122386,1.4045107419484784
172.03528336858614,-5.2915711126680405,0.9310334447779741,57.97862091633146,0.29247265651861687,0.7184695584130193,1.4032432046190175
153.47174936999818,2.592772286569831,2.0855371334957162,58.20826931473343,0.2984444590587828,0.7227760058626501,1.4139366473362895
139.46748546807697,8.846266013017551,2.8213319729067274,58.66967474237556,0.20024433643513073,0.6544503278847652,-0.07833045906436117
133.87729934956968,11.633034970406623,2.836411818903242,58.35453543768542,0.20818099431712067,0.6629909090415564,-0.059560636980417095
136.11605196650288,10.15031295662334,2.512738943806768,57.593880563007104,0.21237493166051954,0.6688270220109761,-0.04756791229320785
146.35240198280985,4.1164401683536065,1.544752134405498,56.682710229334944,0.211194699402741,0.6697546063299131,-0.04666766580538368
166.96065501657614,-4.225599217421923,0.22169782313642727,56.02339275805724,0.20506909453614305,0.6654666427457008,-0.05689585079111967
183.277849165282,-10.567519277229227,-0.8549434005475622,56.18629910008462,0.30315366778415354,0.33718699083535925,-0.4861396805402115
188.72014677461556,-13.154134092675303,-1.0410242732233916,56.70166382049188,0.2951830745967142,0.32878365496116496,-0.503806794005379
180.78204957989806,-11.310340491967475,-0.42937954880591445,57.5080998265865,0.29103969619355613,0.32304494937243367,-0.5152476134096827
169.06043880676745,-5.606133873486092,0.5824137841408459,58.5218213729088,0.2923201328548924,0.3221985081919916,-0.5162763718397452
152.94383103069444,1.7312091811481238,1.776807822137731,59.834631215293044,0.29854224581742395,0.32658215805106605,-0.5067251248452707
138.63552549783861,8.048561113471102,3.1755584163559005,60.980255897701404,-0.10470026470200786,-0.06225710414265856,0.8677404805177946
132.8953997593785,10.259911994291262,4.017175938442788,61.03982218249718,-0.09682884565590459,-0.053952132884965566,0.884855574819101
137.69883405071906,8.446298634423115,3.7651738359408826,59.82744702961793,-0.09284903839809412,-0.048442212591361736,0.8961635604566692
152.07870148438195,3.1785257433023606,2.2085094178938802,58.30133687467388,-0.0942244911703259,-0.04779920812335028,0.8972782101454021
169.07946735844135,-3.9673381427734142,0.7358203834234034,57.48504558986383,-0.10036669509230838,-0.05221583024221149,0.887745736219386
183.8347037925885,-9.550482738912368,-0.22477628581572762,57.64099833551406,0.7304301104978824,-0.10573304294657394,0.29133914168867076
187.49068705772365,-12.246723186509577,-0.3468930236269716,57.97529579397776,0.7230220359552895,-0.11381318327783518,0.2740591204595917
180.7648812694811,-10.674419715440065,0.05627682182989435,58.235911144250935,0.7194331982316958,-0.11914405222224357,0.2627647195715965
165.72730870894515,-5.60961046100088,0.8593185390691552,58.599838031999916,0.7208304021535599,-0.11971086305016404,0.26194795927554243
148.86433806438012,1.630562817183126,1.7012468368858196,59.15706930795912,0.726469561619426,-0.11533780443578823,0.2720618146751844
137.34545185582982,6.674023893266327,2.540583717825264,59.44512603165997,0.1389102643471566,0.3805884472534325,0.33507421934192566
134.9845935413021,8.307801181623226,2.5907487557764757,58.76342456208453,0.14538626896441392,0.3886052904325197,0.3527930167735079
140.36912495929,6.629506636975992,1.9360511006162455,57.63056002540915,0.14845781870987262,0.39391666183195895,0.36407544153144356
150.57920662787055,2.0682228965712293,1.2417169292225814,56.862813583575004,0.14725953402093386,0.3944242434085318,0.3644189866470044
161.28367542790716,-4.080930327964696,0.3997676259017169,56.67326026356052,0.1425633021640338,0.38988295296927966,0.3535343769393501
171.92883346365593,-9.008094384843531,-0.2215809271434479,57.047296937020874,-0.15358112704246588,0.336233290916984,-0.04598993278028624
175.77335144868135,-11.37529342476369,-0.41029868103222755,57.5479930632173,-0.1589805735941326,0.32806056587719595,-0.06430095863757801
174.0073389117373,-10.133470383905163,0.01415231448652221,58.00518266920259,-0.16166709498485354,0.32277374382603297,-0.07571027755205584
167.00774759385249,-5.522293258843665,1.2803636453498288,58.1979921381574,-0.16086733877070866,0.32247311061790307,-0.07559099802912292
153.229206991501,0.9072718815056167,2.794400064942887,58.207071854855066,-0.15714591745628748,0.3273369887682198,-0.06375273924821945
140.14374930362737,5.649145101747244,3.6057458711136734,58.83119548697133,0.5193601415522031,0.3965704288159329,-0.3498094525490593
138.79548568159657,7.478843305058916,3.318918338130315,59.201570620170315,0.5239820150642381,0.40494948191204105,-0.33079924076591577
142.79231381889787,5.9660343942808955,2.465499419714256,58.545877326437406,0.5264790011669955,0.41023873389183624,-0.3193577547842567
148.9929108411833,1.5896028745307547,1.7169244678425895,57.46533017643754,0.5260269267929735,0.41032272092501804,-0.3200768859225175
161.7603292501899,-3.9238435775051723,0.8761816307078684,56.678080557949166,0.5229342742531193,0.4050907006203431,-0.33287252437996034
173.85639646620902,-8.93280450552697,0.2678738617439047,56.58400858231869,0.35060979824684263,0.5643717342679548,0.6847532356517031
179.1520978093331,-10.799909136531484,0.204555270643499,57.66329922008912,0.3464500425386123,0.5557891944028092,0.6653950602346642
174.0457806775245,-8.963349841819088,0.8783385090298738,58.23975948667214,0.34412716446952396,0.5505425404073423,0.6542013303520008
159.62383524064512,-3.719909284715111,1.8915849664105966,57.71991641413933,0.34443099940504146,0.5507041660382063,0.6554905528190159
141.6839786029317,2.1572063554727565,2.5522828642901247,57.39720385070552,0.34714205082417715,0.5562650760419765,0.6687838143579928
125.95583831101808,6.3382024380310416,3.057715185372375,57.911521392217146,0.2748535237447262,-0.12159314260742993,0.4295581290133044
121.62489998764877,7.7274824268928946,3.3457706107096383,58.54013003787698,0.27860515598297714,-0.11303438664044976,0.4488300119972325
128.41998700531127,5.783241636968564,2.9551086178478037,59.071319148593396,0.2807243151246349,-0.10802254868687212,0.4597821033383233
140.85717728167435,0.9752595046771444,2.0961183919681483,58.58908592456087,0.2805110112632639,-0.10842022842662512,0.45822654983044725
156.92849099720286,-4.906691101913877,1.0809612174096026,57.592995669809525,0.2781619958423738,-0.11400891038008773,0.4447808561197044
163.53412862627633,-9.119044486919176,0.39725057427236554,57.28978544709728,0.21361062553876148,-0.10733756107940692,-0.1094855162430785
167.30678959627457,-10.802040545325815,-0.2651370205034127,57.1692692706321,0.21027362023110546,-0.11561724949042833,-0.12874785092284913
166.5439257398488,-9.709956672101676,-0.3455410348594401,57.44879130683578,0.20833049794513117,-0.12044189088518673,-0.13966230315053618
161.8399936407498,-5.691463451001736,0.49673426986474356,58.06169160772627,0.2084265038708597,-0.12001956827887669,-0.137950778086384
152.20701674218742,-0.45869468319781737,1.419124594695655,58.384899878419624,0.21042236990315633,-0.11457675407060397,-0.1241842643576258
143.12199692915158,3.5636147131826323,1.9372555637709308,58.63697529675534,0.32030842166306783,0.8704091124547968,-0.4545822981504851
139.69512029251788,5.4915503697716375,2.071403955734216,58.3445602631372,0.3232891188319584,0.8786750824669273,-0.4351731547878841
142.30574844433508,4.556402072031891,1.8705760017272755,57.9802363486942,0.32508930526824675,0.883626447062763,-0.42441608214180127
145.7421880504879,1.0671979592140186,1.6265510407479538,57.49644767069066,0.32509779363020047,0.8832434952369285,-0.42647440366377704
154.12316670532664,-4.181468010664352,1.1504211351085996,57.045731223572474,0.3233932069363298,0.8775575496058431,-0.4405914535521368
161.87060093068786,-8.385522647118659,0.5231447616707572,57.120250109794476,0.39698395515899026,-0.2605756849288643,0.011699703645729252
165.93089438946356,-9.69457043733235,0.13994511364062812,57.099249763754244,0.3943317860916527,-0.26952115998006654,-0.007634903030075362
161.33083703167804,-8.49874573029728,0.3303567103525955,56.47096543088017,0.392701382678525,-0.2749000287832581,-0.01813111451905621
152.54133239354096,-4.646242869303762,0.9544430592830561,55.967567837123305,0.39262646712284127,-0.2743222674134805,-0.015801747463988908
141.4224530452672,-0.14282222010031909,1.5924196909492703,56.3842737581316,0.39404136166598275,-0.2676856453326075,-0.001582196482284172
130.9889936252637,3.6061781055574897,2.236293765850422,57.92446405116055,-0.1225064737089968,0.42937321846353854,0.4768515659766927
125.1762432223177,5.100462719439988,2.6883640885963884,59.47109961418064,-0.1203427348047404,0.43963736196331216,0.4960850246461357
127.05195428960542,4.563094514905541,2.8275403349479284,60.2138226903986,-0.11903549878678701,0.44559897995158176,0.5065128777408705
134.82764077835222,1.7043074938508638,2.297589107469587,60.14822752345734,-0.11890254903424143,0.44451761078314544,0.5040828671249461
146.2604902695898,-2.611505108891321,1.5934101567584853,59.56781068103657,-0.11980798106451833,0.43635440517749996,0.48967638915716366
156.84987550589886,-6.513294931082196,0.8444712425617864,58.820714510010646,0.199179892976321,-0.5069157620304121,0.8350359948483128
162.25715329758805,-8.559410014046446,0.4360352857431091,58.10685581715959,0.19778691599212941,-0.5190312060140783,0.8157812670871313
162.20057921386038,-7.685161551128233,0.44999008275165997,57.512161592582245,0.19686816431131945,-0.5258354517061311,0.8055426186949911
156.012792231051,-4.68934212917778,0.9215484763487531,57.70945978763535,0.196535962967783,-0.5240935030557234,0.8082428709475703
143.74086030996602,-0.8962893547841357,1.1703111996463142,58.413594517058485,0.1966734416932846,-0.5138448491657135,0.8228414616222035
133.54723818716343,2.7877252750070562,1.454642025840163,59.08295329539295,-0.44385830424496225,-0.17816219443343836,0.1417635323547359
128.27353712095632,4.665234931404907,1.8527630745593067,59.287528478822566,-0.4435260517632518,-0.16372253791787267,0.16075214598302634
127.11933731305545,4.312830151899784,1.6069799662267155,59.36859049094792,-0.44317380821736424,-0.15601836050037787,0.17062680121998716
135.93058380180275,1.4805225925577812,0.782107567240361,58.59413160253513,-0.44258227317184856,-0.15869229880064417,0.1677212860289039
146.0458982716157,-2.870622277584963,0.2575090894345194,57.23377635543213,-0.4416182686785519,-0.17141420264913065,0.15327108265747538
152.46550882348944,-6.45540209566772,-0.03178783989884415,56.25913359747289,-0.27255998821195687,-0.1592226046006346,-0.12653046625269906
154.9805318694169,-8.101446685525183,-0.12144770663852889,56.26300615578745,-0.27153729987506625,-0.17613395974165602,-0.1450842928773409
152.67643986260407,-7.384873859101845,0.09068907493572514,57.30969698340347,-0.27131032480805,-0.1847259849262478,-0.15473851246524806
144.8848300769078,-4.097194543705055,0.7349315309147694,58.1528447902948,-0.27235026863214673,-0.18101487085975007,-0.1518556464375501
134.94506908924814,0.15558898750318706,1.5246474534904242,58.61761489440017,-0.2746499271511055,-0.16572343927725272,-0.1376060898091372
127.5824900797361,3.5597559038007685,2.1630716724848624,59.05688880364918,0.7906401517564028,-0.907283205316222,0.49291510562271035
125.53052719867611,5.069419396521365,2.2605143432836323,59.4407838224894,0.7884728253745777,-0.8880759282532764,0.5113321131632402
131.28188715665743,4.510926758871809,2.0477286241927564,59.54587926557898,0.7880074453991743,-0.8788122153479695,0.5209588309638721
140.98409998087817,1.579700864537171,1.5175946343521904,58.82955158069472,0.789615045221444,-0.8836039556114792,0.5180497312220739
149.79742158105523,-2.2443472848080592,0.7642997732521227,57.787855453241704,0.7928804976442005,-0.9011884274219591,0.50366563790542
154.33748618163276,-5.556420670236136,0.4567256445284958,56.979897313271664,0.6288222050494613,0.03620240065937479,-0.32550525494225535
