EOG_left_h,EOG_right_h,EOG_left_v,EOG_right_v,head_horizontal,head_frontal,head_sagittal
15.3923724293569,-12.3120297400536,-18.9276484499892,-11.5531728826003,0.0,0.0,0.0
15.3923724293569,-12.3120297400536,-18.9276484499892,-11.5531728826003,0.000966073595918715,0.00102413480635732,0.00011321589408908
15.3923724293569,-12.3120297400536,-18.9276484499892,-11.5531728826003,0.00193021399900317,0.00204635364934802,0.000226468866458163
15.3923724293569,-12.3120297400536,-18.9276484499892,-11.5531728826003,0.00289242318831384,0.00306665850803256,0.000339758931659162
15.3923724293569,-12.3120297400536,-18.9276484499892,-11.5531728826003,0.00385270337574184,0.0040850518271327,0.000453086104243994
15.3923724293569,-12.3120297400536,-18.9276484499892,-11.5531728826003,0.0048110568895936,0.00510153593495488,0.000566450413316488
15.3923724293569,-12.3120297400536,-18.9276484499892,-11.5531728826003,0.00576748559251428,0.00611611269414425,0.000679851858876646
15.3923724293569,-12.3120297400536,-18.9276484499892,-11.5531728826003,0.00672199157997966,0.00712878489866853,0.000793290499132127
15.3923724293569,-12.3120297400536,-18.9276484499892,-11.5531728826003,0.0076745767146349,0.00813955441117287,0.000906766334082931
15.3923724293569,-12.3120297400536,-18.9276484499892,-11.5531728826003,0.00862524379044771,0.0091484235599637,0.00102027936372906
15.3923724293569,-12.3120297400536,-18.9276484499892,-11.5531728826003,0.00957399420440197,0.0101553946733475,0.00113382958807051
15.3923724293569,-12.3120297400536,-18.9276484499892,-11.5531728826003,0.0105208298191428,0.0111604696139693,0.00124741706531495
15.3923724293569,-12.3120297400536,-18.9276484499892,-11.5531728826003,0.011465753428638,0.012163651175797,0.00136104179546237
15.3923724293569,-12.3120297400536,-18.9276484499892,-11.5531728826003,0.0124087668955326,0.0131649412214756,0.00147470377851278
15.3923724293569,-12.3120297400536,-18.9276484499892,-11.5531728826003,0.0133498720824718,0.0141643416136503,0.00158840313088149
15.3923724293569,-12.3120297400536,-18.9276484499892,-11.5531728826003,0.0142890717834234,0.0151618551462889,0.00170213973615319
15.3923724293569,-12.3120297400536,-18.9276484499892,-11.5531728826003,0.0152263678610325,0.0161574836820364,0.00181591371074319
15.3923724293569,-12.3120297400536,-18.9276484499892,-11.5531728826003,0.0161617621779442,0.0171512290835381,0.0019297250546515
15.3923724293569,-12.3120297400536,-18.9276484499892,-11.5531728826003,0.0170952565968037,0.0181430950760841,0.00204357365146279
15.3923724293569,-12.3120297400536,-18.9276484499892,-11.5531728826003,0.0180268529802561,0.0191330816596746,0.00215745973400772
15.3923724293569,-12.3120297400536,-18.9276484499892,-11.5531728826003,0.0189565550535917,0.0201211925595999,0.00227138330228627
15.3923724293569,-12.3120297400536,-18.9276484499892,-11.5531728826003,0.0198843628168106,0.021107429638505,0.00238534435629845
15.3923724293569,-12.3120297400536,-18.9276484499892,-11.5531728826003,0.020810279995203,0.0220917947590351,0.00249934266321361
15.3923724293569,-12.3120297400536,-18.9276484499892,-11.5531728826003,0.021734306588769,0.0230742916464806,0.0026133784558624
15.3923724293569,-12.3120297400536,-18.9276484499892,-11.5531728826003,0.0226564463227987,0.0240549203008413,0.00272745173424482
15.3923724293569,-12.3120297400536,-18.9276484499892,-11.5531728826003,0.0235767010599375,0.0250336844474077,0.00284156249836087
15.3923724293569,-12.3120297400536,-18.9276484499892,-11.5531728826003,0.0244950726628304,0.0260105859488249,0.00295571074821055
15.3923724293569,-12.3120297400536,-18.9276484499892,-11.5531728826003,0.0254115629941225,0.026985626667738,0.0030698967166245
15.3923724293569,-12.3120297400536,-18.9276484499892,-11.5531728826003,0.0263261757791042,0.0279588084667921,0.00318412017077208
15.3923724293569,-12.3120297400536,-18.9276484499892,-11.5531728826003,0.0272389110177755,0.0289301350712776,0.00329838111065328
15.3923724293569,-12.3120297400536,-18.9276484499892,-11.5531728826003,0.0281497724354267,0.0298996083438396,0.00341267976909876
15.3923724293569,-12.3120297400536,-18.9276484499892,-11.5531728826003,0.0290587600320578,0.0308672282844782,0.00352701591327786
15.3923724293569,-12.3120297400536,-18.9276484499892,-11.5531728826003,0.029965877532959,0.0318330004811287,0.00364138977602124
15.3923724293569,-12.3120297400536,-18.9276484499892,-11.5531728826003,0.0308711268007755,0.032796923071146,0.00375580135732889
15.3923724293569,-12.3120297400536,-18.9276484499892,-11.5531728826003,0.0317745096981525,0.0337590016424656,0.00387025065720081
15.3923724293569,-12.3120297400536,-18.9276484499892,-11.5531728826003,0.03267602622509,0.0347192361950874,0.00398473767563701
15.3923724293569,-12.3120297400536,-18.9276484499892,-11.5531728826003,0.0335756801068783,0.0356776304543018,0.00409926241263747
15.3923724293569,-12.3120297400536,-18.9276484499892,-11.5531728826003,0.0344734750688076,0.0366341881453991,0.00421382486820221
15.3923724293569,-12.3120297400536,-18.9276484499892,-11.5531728826003,0.035369411110878,0.0375889092683792,0.00432842504233122
15.3923724293569,-12.3120297400536,-18.9276484499892,-11.5531728826003,0.0362634919583797,0.0385417938232422,0.0044430629350245
15.3923724293569,-12.3120297400536,-18.9276484499892,-11.5531728826003,0.0371557176113129,0.0394928455352783,0.00455773854628205
15.3923724293569,-12.3120297400536,-18.9276484499892,-11.5531728826003,0.0380460917949677,0.0404420681297779,0.00467245187610388
15.3923724293569,-12.3120297400536,-18.9276484499892,-11.5531728826003,0.0389346182346344,0.0413894653320313,0.00478720292448998
15.3923724293569,-12.3120297400536,-18.9276484499892,-11.5531728826003,0.0398212969303131,0.0423350371420383,0.00490199215710163
15.3923724293569,-12.3120297400536,-18.9276484499892,-11.5531728826003,0.0407061278820038,0.0432787835597992,0.00501681910827756
15.3923724293569,-12.3120297400536,-18.9276484499892,-11.5531728826003,0.0415891148149967,0.0442207083106041,0.00513168377801776
15.3923724293569,-12.3120297400536,-18.9276484499892,-11.5531728826003,0.0424702614545822,0.0451608151197433,0.00524658616632223
15.3923724293569,-12.3120297400536,-18.9276484499892,-11.5531728826003,0.0433495678007603,0.0460991039872169,0.00536152673885226
15.3923724293569,-12.3120297400536,-18.9276484499892,-11.5531728826003,0.0442270375788212,0.0470355786383152,0.00547650502994657
15.3923724293569,-12.3120297400536,-18.9276484499892,-11.5531728826003,0.045102670788765,0.0479702427983284,0.00559152150526643
15.3923724293569,-12.3120297400536,-18.9276484499892,-11.5531728826003,0.0459764711558819,0.0489030964672565,0.00570657569915056
15.3923724293569,-12.3120297400536,-18.9276484499892,-11.5531728826003,0.046848438680172,0.0498341396450996,0.00582166807726026
15.3923724293569,-12.3120297400536,-18.9276484499892,-11.5531728826003,0.0477185770869255,0.0507633797824383,0.00593679817393422
15.3923724293569,-12.3120297400536,-18.9276484499892,-11.5531728826003,0.0485868901014328,0.0516908131539822,0.00605196645483375
15.3923724293569,-12.3120297400536,-18.9276484499892,-11.5531728826003,0.0494533777236938,0.0526164472103119,0.00616717291995883
15.3923724293569,-12.3120297400536,-18.9276484499892,-11.5531728826003,0.0503180399537086,0.0535402819514275,0.00628241710364819
15.3923724293569,-12.3120297400536,-18.9276484499892,-11.5531728826003,0.0511808805167675,0.0544623173773289,0.0063976994715631
15.3923724293569,-12.3120297400536,-18.9276484499892,-11.5531728826003,0.0520419031381607,0.0553825572133064,0.00651302002370358
15.3923724293569,-12.3120297400536,-18.9276484499892,-11.5531728826003,0.0529011078178883,0.0563010051846504,0.00662837876006961
15.3923724293569,-12.3120297400536,-18.9276484499892,-11.5531728826003,0.0537584982812405,0.0572176612913609,0.0067437756806612
15.3923724293569,-12.3120297400536,-18.9276484499892,-11.5531728826003,0.0546140745282173,0.058132529258728,0.00685921078547835
15.3923724293569,-12.3120297400536,-18.9276484499892,-11.5531728826003,0.0554678402841091,0.0590456128120422,0.00697468407452106
15.3923724293569,-12.3120297400536,-18.9276484499892,-11.5531728826003,0.0563197955489159,0.0599569119513035,0.00709019508212805
15.3923724293569,-12.3120297400536,-18.9276484499892,-11.5531728826003,0.0571699440479279,0.0608664266765118,0.00720574473962188
15.3923724293569,-12.3120297400536,-18.9276484499892,-11.5531728826003,0.0580182895064354,0.0617741607129574,0.00732133258134127
15.3923724293569,-12.3120297400536,-18.9276484499892,-11.5531728826003,0.0588648319244385,0.0626801177859306,0.00743695860728621
15.3923724293569,-12.3120297400536,-18.9276484499892,-11.5531728826003,0.0597095713019371,0.0635842978954315,0.00755262281745672
15.3923724293569,-12.3120297400536,-18.9276484499892,-11.5531728826003,0.0605525113642216,0.0644867047667503,0.00766832521185279
15.3923724293569,-12.3120297400536,-18.9276484499892,-11.5531728826003,0.0613936558365822,0.0653873383998871,0.00778406579047441
15.3923724293569,-12.3120297400536,-18.9276484499892,-11.5531728826003,0.0622330047190189,0.0662862062454224,0.00789984501898289
15.3923724293569,-12.3120297400536,-18.9276484499892,-11.5531728826003,0.0630705580115318,0.0671833083033562,0.00801566243171692
15.3923724293569,-12.3120297400536,-18.9276484499892,-11.5531728826003,0.0639063268899918,0.0680786445736885,0.00813151802867651
15.3923724293569,-12.3120297400536,-18.9276484499892,-11.5531728826003,0.0647403076291084,0.0689722150564194,0.00824741180986166
15.3923724293569,-12.3120297400536,-18.9276484499892,-11.5531728826003,0.0655725002288818,0.0698640272021294,0.00836334377527237
15.3923724293569,-12.3120297400536,-18.9276484499892,-11.5531728826003,0.066402904689312,0.0707540810108185,0.00847931485623121
15.3923724293569,-12.3120297400536,-18.9276484499892,-11.5531728826003,0.0672315284609795,0.0716423764824867,0.00859532412141562
15.3923724293569,-12.3120297400536,-18.9276484499892,-11.5531728826003,0.0680583715438843,0.0725289210677147,0.00871137157082558
15.3923724293569,-12.3120297400536,-18.9276484499892,-11.5531728826003,0.0688834339380264,0.0734137073159218,0.0088274572044611
15.3923724293569,-12.3120297400536,-18.9276484499892,-11.5531728826003,0.0697067230939865,0.0742967501282692,0.00894358195364475
15.3923724293569,-12.3120297400536,-18.9276484499892,-11.5531728826003,0.0705282315611839,0.0751780420541763,0.00905974488705397
15.3923724293569,-12.3120297400536,-18.9276484499892,-11.5531728826003,0.0713479742407799,0.0760575905442238,0.00917594600468874
15.3923724293569,-12.3120297400536,-18.9276484499892,-11.5531728826003,0.0721659436821938,0.0769353955984116,0.00929218623787165
15.3923724293569,-12.3120297400536,-18.9276484499892,-11.5531728826003,0.0729821473360062,0.0778114572167397,0.00940846465528011
15.3923724293569,-12.3120297400536,-18.9276484499892,-11.5531728826003,0.0737965777516365,0.0786857753992081,0.00952478125691414
15.3923724293569,-12.3120297400536,-18.9276484499892,-11.5531728826003,0.074609249830246,0.0795583575963974,0.0096411369740963
15.3923724293569,-12.3120297400536,-18.9276484499892,-11.5531728826003,0.075420156121254,0.0804292038083076,0.00975753087550402
15.3923724293569,-12.3120297400536,-18.9276484499892,-11.5531728826003,0.0762293040752411,0.0812983214855194,0.00987396389245987
15.3923724293569,-12.3120297400536,-18.9276484499892,-11.5531728826003,0.0770366936922073,0.0821657031774521,0.00999043509364128
15.3923724293569,-12.3120297400536,-18.9276484499892,-11.5531728826003,0.0778423249721527,0.0830313563346863,0.0101069454103708
15.3923724293569,-12.3120297400536,-18.9276484499892,-11.5531728826003,0.0786461979150772,0.0838952884078026,0.0102234939113259
15.3923724293569,-12.3120297400536,-18.9276484499892,-11.5531728826003,0.0794483199715614,0.0847574919462204,0.0103400815278292
15.3923724293569,-12.3120297400536,-18.9276484499892,-11.5531728826003,0.0802486911416054,0.0856179744005203,0.010456707328558
15.3923724293569,-12.3120297400536,-18.9276484499892,-11.5531728826003,0.081047311425209,0.0864767357707024,0.0105733722448349
15.3923724293569,-12.3120297400536,-18.9276484499892,-11.5531728826003,0.081844188272953,0.0873337760567665,0.0106900753453374
15.3923724293569,-12.3120297400536,-18.9276484499892,-11.5531728826003,0.0826393216848373,0.0881891027092934,0.010806817561388
15.3923724293569,-12.3120297400536,-18.9276484499892,-11.5531728826003,0.083432711660862,0.0890427157282829,0.0109235988929868
15.3923724293569,-12.3120297400536,-18.9276484499892,-11.5531728826003,0.0842243582010269,0.0898946151137352,0.0110404184088111
15.3923724293569,-12.3120297400536,-18.9276484499892,-11.5531728826003,0.0850142687559128,0.0907448083162308,0.0111572770401835
15.3923724293569,-12.3120297400536,-18.9276484499892,-11.5531728826003,0.0858024433255196,0.0915932878851891,0.0112741738557816
15.3923724293569,-12.3120297400536,-18.9276484499892,-11.5531728826003,0.0865888819098473,0.0924400687217712,0.0113911097869277
15.3923724293569,-12.3120297400536,-18.9276484499892,-11.5531728826003,0.0873735845088959,0.0932851433753967,0.011508084833622
15.3923724293569,-12.3120297400536,-18.9276484499892,-11.5531728826003,0.088156558573246,0.0941285192966461,0.0116250989958644
15.3923724293569,-12.3120297400536,-18.9276484499892,-11.5531728826003,0.0889378041028976,0.0949701890349388,0.0117421513423324
15.3923724293569,-12.3120297400536,-18.9276484499892,-11.5531728826003,0.0897173210978508,0.095810167491436,0.0118592428043485
15.3923724293569,-12.3120297400536,-18.9276484499892,-11.5531728826003,0.0904951170086861,0.0966484472155571,0.0119763733819127
15.3923724293569,-12.3120297400536,-18.9276484499892,-11.5531728826003,0.0912711918354034,0.0974850356578827,0.0120935430750251
15.3923724293569,-12.3120297400536,-18.9276484499892,-11.5531728826003,0.0920455455780029,0.0983199328184128,0.012210750952363
15.3923724293569,-12.3120297400536,-18.9276484499892,-11.5531728826003,0.0928181782364845,0.0991531386971474,0.0123279979452491
15.3923724293569,-12.3120297400536,-18.9276484499892,-11.5531728826003,0.0935890972614288,0.0999846607446671,0.0124452840536833
15.3923724293569,-12.3120297400536,-18.9276484499892,-11.5531728826003,0.0943582952022552,0.100814498960972,0.0125626092776656
15.3923724293569,-12.3120297400536,-18.9276484499892,-11.5531728826003,0.0951257795095444,0.101642653346062,0.0126799736171961
15.3923724293569,-12.3120297400536,-18.9276484499892,-11.5531728826003,0.0958915576338768,0.102469123899937,0.0127973770722747
15.3923724293569,-12.3120297400536,-18.9276484499892,-11.5531728826003,0.0966556221246719,0.103293918073177,0.0129148196429014
15.3923724293569,-12.3120297400536,-18.9276484499892,-11.5531728826003,0.0974179804325104,0.104117035865784,0.0130323013290763
15.3923724293569,-12.3120297400536,-18.9276484499892,-11.5531728826003,0.0981786325573921,0.104938477277756,0.0131498221307993
15.3923724293569,-12.3120297400536,-18.9276484499892,-11.5531728826003,0.0989375859498978,0.105758249759674,0.0132673820480704
15.3923724293569,-12.3120297400536,-18.9276484499892,-11.5531728826003,0.0996948406100273,0.106576353311539,0.0133849810808897
15.3923724293569,-12.3120297400536,-18.9276484499892,-11.5531728826003,0.100450396537781,0.10739278793335,0.0135026192292571
15.3923724293569,-12.3120297400536,-18.9276484499892,-11.5531728826003,0.101204253733158,0.108207553625107,0.0136202964931726
15.3923724293569,-12.3120297400536,-18.9276484499892,-11.5531728826003,0.101956412196159,0.109020657837391,0.0137380128726363
15.3923724293569,-12.3120297400536,-18.9276484499892,-11.5531728826003,0.102706879377365,0.109832100570202,0.0138557683676481
15.3923724293569,-12.3120297400536,-18.9276484499892,-11.5531728826003,0.103455655276775,0.11064188182354,0.0139735629782081
15.3923724293569,-12.3120297400536,-18.9276484499892,-11.5531728826003,0.10420273989439,0.111450009047985,0.0140913967043161
15.3923724293569,-12.3120297400536,-18.9276484499892,-11.5531728826003,0.10494814068079,0.112256482243538,0.0142092695459723
15.3923724293569,-12.3120297400536,-18.9276484499892,-11.5531728826003,0.105691857635975,0.113061301410198,0.0143271815031767
15.3923724293569,-12.3120297400536,-18.9276484499892,-11.5531728826003,0.106433890759945,0.113864466547966,0.0144451325759292
15.3923724293569,-12.3120297400536,-18.9276484499892,-11.5531728826003,0.1071742400527,0.114665985107422,0.0145631236955523
15.3923724293569,-12.3120297400536,-18.9276484499892,-11.5531728826003,0.10791290551424,0.115465849637985,0.0146811539307237
15.3923724293569,-12.3120297400536,-18.9276484499892,-11.5531728826003,0.108649894595146,0.116264075040817,0.0147992232814431
15.3923724293569,-12.3120297400536,-18.9276484499892,-11.5531728826003,0.109385207295418,0.117060653865337,0.0149173317477107
15.3923724293569,-12.3120297400536,-18.9276484499892,-11.5531728826003,0.110118851065636,0.117855593562126,0.015035480260849
15.3923724293569,-12.3120297400536,-18.9276484499892,-11.5531728826003,0.110850818455219,0.118648894131184,0.0151536678895354
15.3923724293569,-12.3120297400536,-18.9276484499892,-11.5531728826003,0.111581116914749,0.11944055557251,0.01527189463377
15.3923724293569,-12.3120297400536,-18.9276484499892,-11.5531728826003,0.112309746444225,0.120230585336685,0.0153901604935527
15.3923724293569,-12.3120297400536,-18.9276484499892,-11.5531728826003,0.113036714494228,0.12101898342371,0.0155084664002061
15.3923724293569,-12.3120297400536,-18.9276484499892,-11.5531728826003,0.113762013614178,0.121805749833584,0.0156268123537302
15.3923724293569,-12.3120297400536,-18.9276484499892,-11.5531728826003,0.114485651254654,0.122590884566307,0.0157451964914799
15.3923724293569,-12.3120297400536,-18.9276484499892,-11.5531728826003,0.115207634866238,0.12337439507246,0.0158636197447777
15.3923724293569,-12.3120297400536,-18.9276484499892,-11.5531728826003,0.115927956998348,0.124156281352043,0.0159820839762688
15.3923724293569,-12.3120297400536,-18.9276484499892,-11.5531728826003,0.116646625101566,0.124936543405056,0.016100587323308
15.3923724293569,-12.3120297400536,-18.9276484499892,-11.5531728826003,0.117363639175892,0.125715181231499,0.0162191297858953
15.3923724293569,-12.3120297400536,-18.9276484499892,-11.5531728826003,0.118078999221325,0.126492202281952,0.0163377113640308
15.3923724293569,-12.3120297400536,-18.9276484499892,-11.5531728826003,0.118792705237865,0.127267614006996,0.0164563320577145
15.3923724293569,-12.3120297400536,-18.9276484499892,-11.5531728826003,0.119504764676094,0.12804140150547,0.0165749937295914
15.3923724293569,-12.3120297400536,-18.9276484499892,-11.5531728826003,0.120215177536011,0.128813579678535,0.0166936945170164
15.3923724293569,-12.3120297400536,-18.9276484499892,-11.5531728826003,0.120923943817616,0.129584148526192,0.0168124344199896
15.3923724293569,-12.3120297400536,-18.9276484499892,-11.5531728826003,0.121631070971489,0.130353108048439,0.016931215301156
15.3923724293569,-12.3120297400536,-18.9276484499892,-11.5531728826003,0.122336558997631,0.131120458245277,0.0170500352978706
15.3923724293569,-12.3120297400536,-18.9276484499892,-11.5531728826003,0.123040407896042,0.131886214017868,0.0171688944101334
15.3923724293569,-12.3120297400536,-18.9276484499892,-11.5531728826003,0.123742617666721,0.13265036046505,0.0172877926379442
15.3923724293569,-12.3120297400536,-18.9276484499892,-11.5531728826003,0.12444319576025,0.133412912487984,0.0174067318439484
15.3923724293569,-12.3120297400536,-18.9276484499892,-11.5531728826003,0.125142142176628,0.134173855185509,0.0175257101655006
15.3923724293569,-12.3120297400536,-18.9276484499892,-11.5531728826003,0.125839456915855,0.134933203458786,0.0176447276026011
15.3923724293569,-12.3120297400536,-18.9276484499892,-11.5531728826003,0.126535132527351,0.135690957307816,0.0177637860178947
15.3923724293569,-12.3120297400536,-18.9276484499892,-11.5531728826003,0.127229183912277,0.136447131633759,0.0178828835487366
15.3923724293569,-12.3120297400536,-18.9276484499892,-11.5531728826003,0.127921611070633,0.137201711535454,0.0180020201951265
15.3923724293569,-12.3120297400536,-18.9276484499892,-11.5531728826003,0.128612414002419,0.137954697012901,0.0181211978197098
15.3923724293569,-12.3120297400536,-18.9276484499892,-11.5531728826003,0.129301592707634,0.138706102967262,0.0182404145598412
15.3923724293569,-12.3120297400536,-18.9276484499892,-11.5531728826003,0.12998916208744,0.139455929398537,0.0183596704155207
15.3923724293569,-12.3120297400536,-18.9276484499892,-11.5531728826003,0.130675107240677,0.140204161405563,0.0184789672493935
15.3923724293569,-12.3120297400536,-18.9276484499892,-11.5531728826003,0.131359443068504,0.140950813889503,0.0185983031988144
15.3923724293569,-12.3120297400536,-18.9276484499892,-11.5531728826003,0.132042154669762,0.141695901751518,0.0187176801264286
15.3923724293569,-12.3120297400536,-18.9276484499892,-11.5531728826003,0.13272325694561,0.142439410090446,0.018837096169591
15.3923724293569,-12.3120297400536,-18.9276484499892,-11.5531728826003,0.13340274989605,0.143181338906288,0.0189565513283014
15.3923724293569,-12.3120297400536,-18.9276484499892,-11.5531728826003,0.13408063352108,0.143921703100204,0.0190760474652052
15.3923724293569,-12.3120297400536,-18.9276484499892,-11.5531728826003,0.134756907820702,0.144660487771034,0.0191955827176571
15.3923724293569,-12.3120297400536,-18.9276484499892,-11.5531728826003,0.135431587696075,0.145397707819939,0.0193151589483023
15.3923724293569,-12.3120297400536,-18.9276484499892,-11.5531728826003,0.13610465824604,0.146133363246918,0.0194347742944956
15.3923724293569,-12.3120297400536,-18.9276484499892,-11.5531728826003,0.136776134371758,0.146867454051971,0.0195544306188822
15.3923724293569,-12.3120297400536,-18.9276484499892,-11.5531728826003,0.137446016073227,0.1475999802351,0.0196741260588169
15.3923724293569,-12.3120297400536,-18.9276484499892,-11.5531728826003,0.138114288449287,0.148330956697464,0.0197938624769449
15.3923724293569,-12.3120297400536,-18.9276484499892,-11.5531728826003,0.1387809664011,0.149060368537903,0.0199136380106211
15.3923724293569,-12.3120297400536,-18.9276484499892,-11.5531728826003,0.139446049928665,0.149788230657578,0.0200334545224905
15.3923724293569,-12.3120297400536,-18.9276484499892,-11.5531728826003,0.140109553933144,0.150514528155327,0.0201533101499081
15.3923724293569,-12.3120297400536,-18.9276484499892,-11.5531728826003,0.140771463513374,0.151239275932312,0.0202732067555189
15.3923724293569,-12.3120297400536,-18.9276484499892,-11.5531728826003,0.141431778669357,0.151962473988533,0.0203931424766779
15.3923724293569,-12.3120297400536,-18.9276484499892,-11.5531728826003,0.142090514302254,0.15268412232399,0.0205131191760302
15.3923724293569,-12.3120297400536,-18.9276484499892,-11.5531728826003,0.142747670412064,0.153404235839844,0.0206331349909306
15.3923724293569,-12.3120297400536,-18.9276484499892,-11.5531728826003,0.143403246998787,0.154122799634933,0.0207531917840242
15.3923724293569,-12.3120297400536,-18.9276484499892,-11.5531728826003,0.144057244062424,0.15483982861042,0.0208732876926661
15.3923724293569,-12.3120297400536,-18.9276484499892,-11.5531728826003,0.144709661602974,0.155555307865143,0.0209934245795012
15.3923724293569,-12.3120297400536,-18.9276484499892,-11.5531728826003,0.145360499620438,0.156269252300262,0.0211136024445295
15.3923724293569,-12.3120297400536,-18.9276484499892,-11.5531728826003,0.146009758114815,0.156981661915779,0.021233819425106
15.3923724293569,-12.3120297400536,-18.9276484499892,-11.5531728826003,0.146657451987267,0.157692536711693,0.0213540773838758
15.3923724293569,-12.3120297400536,-18.9276484499892,-11.5531728826003,0.147303581237793,0.158401876688004,0.0214743744581938
15.3923724293569,-12.3120297400536,-18.9276484499892,-11.5531728826003,0.147948130965233,0.159109696745872,0.021594712510705
15.3923724293569,-12.3120297400536,-18.9276484499892,-11.5531728826003,0.148591116070747,0.159815981984138,0.0217150915414095
15.3923724293569,-12.3120297400536,-18.9276484499892,-11.5531728826003,0.149232536554337,0.160520747303963,0.0218355096876621
15.3923724293569,-12.3120297400536,-18.9276484499892,-11.5531728826003,0.149872392416,0.161223992705345,0.021955968812108
15.3923724293569,-12.3120297400536,-18.9276484499892,-11.5531728826003,0.1505106985569,0.161925703287125,0.0220764670521021
15.3923724293569,-12.3120297400536,-18.9276484499892,-11.5531728826003,0.151147440075874,0.162625893950462,0.0221970062702894
15.3923724293569,-12.3120297400536,-18.9276484499892,-11.5531728826003,0.151782616972923,0.163324579596519,0.02231758646667
15.3923724293569,-12.3120297400536,-18.9276484499892,-11.5531728826003,0.152416244149208,0.164021745324135,0.0224382057785988
15.3923724293569,-12.3120297400536,-18.9276484499892,-11.5531728826003,0.153048321604729,0.164717391133308,0.0225588660687208
15.3923724293569,-12.3120297400536,-18.9276484499892,-11.5531728826003,0.153678849339485,0.165411531925201,0.0226795673370361
15.3923724293569,-12.3120297400536,-18.9276484499892,-11.5531728826003,0.154307827353477,0.166104167699814,0.0228003077208996
15.3923724293569,-12.3120297400536,-18.9276484499892,-11.5531728826003,0.154935255646706,0.166795283555984,0.0229210890829563
15.3923724293569,-12.3120297400536,-18.9276484499892,-11.5531728826003,0.15556113421917,0.167484894394875,0.0230419114232063
15.3923724293569,-12.3120297400536,-18.9276484499892,-11.5531728826003,0.156185477972031,0.168173000216484,0.0231627747416496
15.3923724293569,-12.3120297400536,-18.9276484499892,-11.5531728826003,0.156808272004128,0.168859615921974,0.0232836771756411
15.3923724293569,-12.3120297400536,-18.9276484499892,-11.5531728826003,0.157429531216621,0.169544726610184,0.0234046205878258
15.3923724293569,-12.3120297400536,-18.9276484499892,-11.5531728826003,0.158049240708351,0.170228332281113,0.0235256049782038
15.3923724293569,-12.3120297400536,-18.9276484499892,-11.5531728826003,0.158667415380478,0.170910447835922,0.0236466303467751
15.3923724293569,-12.3120297400536,-18.9276484499892,-11.5531728826003,0.159284055233002,0.171591073274612,0.0237676948308945
15.3923724293569,-12.3120297400536,-18.9276484499892,-11.5531728826003,0.159899160265923,0.172270208597183,0.0238888002932072
15.3923724293569,-12.3120297400536,-18.9276484499892,-11.5531728826003,0.160512745380402,0.172947853803635,0.0240099467337132
15.3923724293569,-12.3120297400536,-18.9276484499892,-11.5531728826003,0.161124795675278,0.173624008893967,0.0241311341524124
15.3923724293569,-12.3120297400536,-18.9276484499892,-11.5531728826003,0.161735326051712,0.174298673868179,0.0242523606866598
15.3923724293569,-12.3120297400536,-18.9276484499892,-11.5531728826003,0.162344321608543,0.174971848726273,0.0243736281991005
15.3923724293569,-12.3120297400536,-18.9276484499892,-11.5531728826003,0.162951797246933,0.175643548369408,0.0244949366897345
15.3923724293569,-12.3120297400536,-18.9276484499892,-11.5531728826003,0.163557752966881,0.176313757896423,0.0246162861585617
15.3923724293569,-12.3120297400536,-18.9276484499892,-11.5531728826003,0.164162188768387,0.176982492208481,0.0247376766055822
15.3923724293569,-12.3120297400536,-18.9276484499892,-11.5531728826003,0.164765104651451,0.17764975130558,0.0248591080307961
15.3923724293569,-12.3120297400536,-18.9276484499892,-11.5531728826003,0.165366500616074,0.178315535187721,0.024980578571558
15.3923724293569,-12.3120297400536,-18.9276484499892,-11.5531728826003,0.165966391563416,0.178979843854904,0.0251020900905132
15.3923724293569,-12.3120297400536,-18.9276484499892,-11.5531728826003,0.166564762592316,0.17964269220829,0.0252236425876617
15.3923724293569,-12.3120297400536,-18.9276484499892,-11.5531728826003,0.167161628603935,0.180304065346718,0.0253452360630035
15.3923724293569,-12.3120297400536,-18.9276484499892,-11.5531728826003,0.167756989598274,0.180963978171349,0.0254668705165386
15.3923724293569,-12.3120297400536,-18.9276484499892,-11.5531728826003,0.168350830674171,0.181622415781021,0.025588545948267
15.3923724293569,-12.3120297400536,-18.9276484499892,-11.5531728826003,0.168943166732788,0.182279393076897,0.0257102623581886
15.3923724293569,-12.3120297400536,-18.9276484499892,-11.5531728826003,0.169534012675285,0.182934910058975,0.0258320197463036
15.3923724293569,-12.3120297400536,-18.9276484499892,-11.5531728826003,0.170123353600502,0.183588966727257,0.0259538181126118
15.3923724293569,-12.3120297400536,-18.9276484499892,-11.5531728826003,0.170711189508438,0.184241577982903,0.0260756555944681
15.3923724293569,-12.3120297400536,-18.9276484499892,-11.5531728826003,0.171297535300255,0.184892728924751,0.0261975340545177
15.3923724293569,-12.3120297400536,-18.9276484499892,-11.5531728826003,0.171882376074791,0.185542419552803,0.0263194534927607
15.3923724293569,-12.3120297400536,-18.9276484499892,-11.5531728826003,0.172465726733208,0.186190664768219,0.0264414139091969
15.3923724293569,-12.3120297400536,-18.9276484499892,-11.5531728826003,0.173047587275505,0.186837464570999,0.0265634153038263
15.3923724293569,-12.3120297400536,-18.9276484499892,-11.5531728826003,0.173627957701683,0.187482818961143,0.0266854576766491
15.3923724293569,-12.3120297400536,-18.9276484499892,-11.5531728826003,0.174206838011742,0.188126727938652,0.0268075410276651
15.3923724293569,-12.3120297400536,-18.9276484499892,-11.5531728826003,0.174784228205681,0.188769191503525,0.0269296653568745
15.3923724293569,-12.3120297400536,-18.9276484499892,-11.5531728826003,0.175360143184662,0.189410209655762,0.0270518306642771
15.3923724293569,-12.3120297400536,-18.9276484499892,-11.5531728826003,0.175934568047523,0.190049782395363,0.027174036949873
15.3923724293569,-12.3120297400536,-18.9276484499892,-11.5531728826003,0.176507517695427,0.190687924623489,0.0272962842136621
15.3923724293569,-12.3120297400536,-18.9276484499892,-11.5531728826003,0.177078977227211,0.191324636340141,0.0274185724556446
15.3923724293569,-12.3120297400536,-18.9276484499892,-11.5531728826003,0.177648961544037,0.191959902644157,0.0275409016758204
15.3923724293569,-12.3120297400536,-18.9276484499892,-11.5531728826003,0.178217470645905,0.192593738436699,0.0276632718741894
15.3923724293569,-12.3120297400536,-18.9276484499892,-11.5531728826003,0.178784504532814,0.193226143717766,0.0277856830507517
15.3923724293569,-12.3120297400536,-18.9276484499892,-11.5531728826003,0.179350078105927,0.193857133388519,0.0279081352055073
15.3923724293569,-12.3120297400536,-18.9276484499892,-11.5531728826003,0.179914176464081,0.194486692547798,0.0280306283384562
15.3923724293569,-12.3120297400536,-18.9276484499892,-11.5531728826003,0.180476799607277,0.195114821195602,0.0281531624495983
15.3923724293569,-12.3120297400536,-18.9276484499892,-11.5531728826003,0.181037962436676,0.195741534233093,0.0282757375389338
15.3923724293569,-12.3120297400536,-18.9276484499892,-11.5531728826003,0.181597664952278,0.196366816759109,0.0283983536064625
15.3923724293569,-12.3120297400536,-18.9276484499892,-11.5531728826003,0.182155892252922,0.196990683674812,0.0285210125148296
15.3923724293569,-12.3120297400536,-18.9276484499892,-11.5531728826003,0.182712659239769,0.197613134980202,0.0286437124013901
15.3923724293569,-12.3120297400536,-18.9276484499892,-11.5531728826003,0.183267965912819,0.198234170675278,0.0287664532661438
15.3923724293569,-12.3120297400536,-18.9276484499892,-11.5531728826003,0.183821827173233,0.19885379076004,0.0288892351090908
15.3923724293569,-12.3120297400536,-18.9276484499892,-11.5531728826003,0.18437422811985,0.199472010135651,0.0290120579302311
15.3923724293569,-12.3120297400536,-18.9276484499892,-11.5531728826003,0.18492516875267,0.200088813900948,0.0291349217295647
15.3923724293569,-12.3120297400536,-18.9276484499892,-11.5531728826003,0.185474663972855,0.200704216957092,0.0292578265070915
15.3923724293569,-12.3120297400536,-18.9276484499892,-11.5531728826003,0.186022713780403,0.201318219304085,0.0293807722628117
15.3923724293569,-12.3120297400536,-18.9276484499892,-11.5531728826003,0.186569303274155,0.201930806040764,0.0295037608593702
15.3923724293569,-12.3120297400536,-18.9276484499892,-11.5531728826003,0.18711444735527,0.202541992068291,0.0296267904341221
15.3923724293569,-12.3120297400536,-18.9276484499892,-11.5531728826003,0.18765814602375,0.203151777386665,0.0297498609870672
15.3923724293569,-12.3120297400536,-18.9276484499892,-11.5531728826003,0.188200399279594,0.203760176897049,0.0298729725182056
15.3923724293569,-12.3120297400536,-18.9276484499892,-11.5531728826003,0.188741222023964,0.20436717569828,0.0299961250275373
15.3923724293569,-12.3120297400536,-18.9276484499892,-11.5531728826003,0.189280599355698,0.204972788691521,0.0301193185150623
15.3923724293569,-12.3120297400536,-18.9276484499892,-11.5531728826003,0.189818546175957,0.205577000975609,0.0302425548434258
15.3923724293569,-12.3120297400536,-18.9276484499892,-11.5531728826003,0.19035504758358,0.206179827451706,0.0303658321499825
15.3923724293569,-12.3120297400536,-18.9276484499892,-11.5531728826003,0.190890118479729,0.206781268119812,0.0304891504347324
15.3923724293569,-12.3120297400536,-18.9276484499892,-11.5531728826003,0.191423758864403,0.207381322979927,0.0306125096976757
15.3923724293569,-12.3120297400536,-18.9276484499892,-11.5531728826003,0.191955968737602,0.207979992032051,0.0307359099388123
15.3923724293569,-12.3120297400536,-18.9276484499892,-11.5531728826003,0.192486748099327,0.208577275276184,0.0308593530207872
15.3923724293569,-12.3120297400536,-18.9276484499892,-11.5531728826003,0.193016096949577,0.209173172712326,0.0309828370809555
15.3923724293569,-12.3120297400536,-18.9276484499892,-11.5531728826003,0.193544030189514,0.209767699241638,0.0311063621193171
15.3923724293569,-12.3120297400536,-18.9276484499892,-11.5531728826003,0.194070532917976,0.21036085486412,0.0312299281358719
15.3923724293569,-12.3120297400536,-18.9276484499892,-11.5531728826003,0.194595620036125,0.210952624678612,0.0313535369932652
15.3923724293569,-12.3120297400536,-18.9276484499892,-11.5531728826003,0.195119291543961,0.211543023586273,0.0314771868288517
15.3923724293569,-12.3120297400536,-18.9276484499892,-11.5531728826003,0.195641532540321,0.212132051587105,0.0316008776426315
15.3923724293569,-12.3120297400536,-18.9276484499892,-11.5531728826003,0.196162357926369,0.212719708681107,0.0317246094346046
15.3923724293569,-12.3120297400536,-18.9276484499892,-11.5531728826003,0.196681767702103,0.21330600976944,0.031848382204771
15.3923724293569,-12.3120297400536,-18.9276484499892,-11.5531728826003,0.197199776768684,0.213890939950943,0.031972199678421
15.3923724293569,-12.3120297400536,-18.9276484499892,-11.5531728826003,0.197716370224953,0.214474499225616,0.0320960581302643
15.3923724293569,-12.3120297400536,-18.9276484499892,-11.5531728826003,0.198231548070908,0.215056702494621,0.0322199575603008
15.3923724293569,-12.3120297400536,-18.9276484499892,-11.5531728826003,0.19874532520771,0.215637549757957,0.0323438979685307
15.3923724293569,-12.3120297400536,-18.9276484499892,-11.5531728826003,0.199257701635361,0.216217041015625,0.0324678793549538
15.3923724293569,-12.3120297400536,-18.9276484499892,-11.5531728826003,0.199768662452698,0.216795176267624,0.0325919017195702
15.3923724293569,-12.3120297400536,-18.9276484499892,-11.5531728826003,0.200278222560883,0.217371955513954,0.0327159687876701
15.3923724293569,-12.3120297400536,-18.9276484499892,-11.5531728826003,0.200786381959915,0.217947378754616,0.0328400768339634
15.3923724293569,-12.3120297400536,-18.9276484499892,-11.5531728826003,0.201293155550957,0.218521445989609,0.0329642258584499
15.3923724293569,-12.3120297400536,-18.9276484499892,-11.5531728826003,0.201798528432846,0.219094172120094,0.0330884158611298
15.3923724293569,-12.3120297400536,-18.9276484499892,-11.5531728826003,0.202302500605583,0.219665557146072,0.0332126468420029
15.3923724293569,-12.3120297400536,-18.9276484499892,-11.5531728826003,0.202805086970329,0.220235586166382,0.0333369225263596
15.3923724293569,-12.3120297400536,-18.9276484499892,-11.5531728826003,0.203306272625923,0.220804274082184,0.0334612391889095
15.3923724293569,-12.3120297400536,-18.9276484499892,-11.5531728826003,0.203806072473526,0.221371620893478,0.0335855968296528
15.3923724293569,-12.3120297400536,-18.9276484499892,-11.5531728826003,0.204304486513138,0.221937626600266,0.0337099954485893
15.3923724293569,-12.3120297400536,-18.9276484499892,-11.5531728826003,0.204801514744759,0.222502306103706,0.0338344350457191
15.3923724293569,-12.3120297400536,-18.9276484499892,-11.5531728826003,0.205297157168388,0.22306564450264,0.0339589193463326
15.3923724293569,-12.3120297400536,-18.9276484499892,-11.5531728826003,0.205791413784027,0.223627656698227,0.0340834446251392
15.3923724293569,-12.3120297400536,-18.9276484499892,-11.5531728826003,0.206284299492836,0.224188327789307,0.0342080108821392
15.3923724293569,-12.3120297400536,-18.9276484499892,-11.5531728826003,0.206775799393654,0.22474767267704,0.0343326181173325
15.3923724293569,-12.3120297400536,-18.9276484499892,-11.5531728826003,0.207265928387642,0.225305691361427,0.0344572700560093
15.3923724293569,-12.3120297400536,-18.9276484499892,-11.5531728826003,0.207754671573639,0.225862383842468,0.0345819629728794
15.3923724293569,-12.3120297400536,-18.9276484499892,-11.5531728826003,0.208242043852806,0.226417750120163,0.0347066968679428
15.3923724293569,-12.3120297400536,-18.9276484499892,-11.5531728826003,0.208728045225143,0.226971790194511,0.0348314717411995
15.3923724293569,-12.3120297400536,-18.9276484499892,-11.5531728826003,0.209212675690651,0.227524518966675,0.0349562875926495
15.3923724293569,-12.3120297400536,-18.9276484499892,-11.5531728826003,0.209695935249329,0.228075921535492,0.035081148147583
15.3923724293569,-12.3120297400536,-18.9276484499892,-11.5531728826003,0.210177838802338,0.228626012802124,0.0352060496807098
15.3923724293569,-12.3120297400536,-18.9276484499892,-11.5531728826003,0.210658371448517,0.229174792766571,0.03533099219203
15.3923724293569,-12.3120297400536,-18.9276484499892,-11.5531728826003,0.211137548089027,0.229722246527672,0.0354559794068336
15.3923724293569,-12.3120297400536,-18.9276484499892,-11.5531728826003,0.211615353822708,0.230268388986588,0.0355810075998306
15.3923724293569,-12.3120297400536,-18.9276484499892,-11.5531728826003,0.21209180355072,0.230813235044479,0.0357060767710209
15.3923724293569,-12.3120297400536,-18.9276484499892,-11.5531728826003,0.212566897273064,0.231356769800186,0.0358311869204044
15.3923724293569,-12.3120297400536,-18.9276484499892,-11.5531728826003,0.213040634989738,0.231898993253708,0.0359563417732716
15.3923724293569,-12.3120297400536,-18.9276484499892,-11.5531728826003,0.213513016700745,0.232439920306206,0.036081537604332
15.3923724293569,-12.3120297400536,-18.9276484499892,-11.5531728826003,0.213984042406082,0.232979536056519,0.0362067744135857
15.3923724293569,-12.3120297400536,-18.9276484499892,-11.5531728826003,0.214453727006912,0.233517855405807,0.0363320522010326
15.3923724293569,-12.3120297400536,-18.9276484499892,-11.5531728826003,0.214922055602074,0.234054878354073,0.0364573746919632
15.3923724293569,-12.3120297400536,-18.9276484499892,-11.5531728826003,0.215389043092728,0.234590604901314,0.036582738161087
15.3923724293569,-12.3120297400536,-18.9276484499892,-11.5531728826003,0.215854674577713,0.235125035047531,0.0367081426084042
15.3923724293569,-12.3120297400536,-18.9276484499892,-11.5531728826003,0.216318964958191,0.235658168792725,0.0368335917592049
15.3923724293569,-12.3120297400536,-18.9276484499892,-11.5531728826003,0.216781914234161,0.236190021038055,0.0369590818881989
15.3923724293569,-12.3120297400536,-18.9276484499892,-11.5531728826003,0.217243522405624,0.236720576882362,0.0370846129953861
15.3923724293569,-12.3120297400536,-18.9276484499892,-11.5531728826003,0.21770378947258,0.237249851226807,0.037210188806057
15.3923724293569,-12.3120297400536,-18.9276484499892,-11.5531728826003,0.218162730336189,0.237777829170227,0.0373358055949211
15.3923724293569,-12.3120297400536,-18.9276484499892,-11.5531728826003,0.218620330095291,0.238304525613785,0.0374614633619785
15.3923724293569,-12.3120297400536,-18.9276484499892,-11.5531728826003,0.219076603651047,0.23882994055748,0.0375871658325195
15.3923724293569,-12.3120297400536,-18.9276484499892,-11.5531728826003,0.219531536102295,0.239354074001312,0.0377129092812538
15.3923724293569,-12.3120297400536,-18.9276484499892,-11.5531728826003,0.219985142350197,0.239876940846443,0.0378386937081814
15.3923724293569,-12.3120297400536,-18.9276484499892,-11.5531728826003,0.220437422394753,0.240398526191711,0.0379645228385925
15.3923724293569,-12.3120297400536,-18.9276484499892,-11.5531728826003,0.220888376235962,0.240918830037117,0.038090392947197
15.3923724293569,-12.3120297400536,-18.9276484499892,-11.5531728826003,0.221338003873825,0.241437867283821,0.0382163040339947
15.3923724293569,-12.3120297400536,-18.9276484499892,-11.5531728826003,0.221786305308342,0.241955637931824,0.038342259824276
15.3923724293569,-12.3120297400536,-18.9276484499892,-11.5531728826003,0.222233280539513,0.242472141981125,0.0384682565927505
15.3923724293569,-12.3120297400536,-18.9276484499892,-11.5531728826003,0.222678944468498,0.242987364530563,0.0385942943394184
15.3923724293569,-12.3120297400536,-18.9276484499892,-11.5531728826003,0.223123282194138,0.243501335382462,0.0387203767895699
15.3923724293569,-12.3120297400536,-18.9276484499892,-11.5531728826003,0.223566308617592,0.244014039635658,0.0388465002179146
15.3923724293569,-12.3120297400536,-18.9276484499892,-11.5531728826003,0.224008023738861,0.244525477290154,0.0389726646244526
15.3923724293569,-12.3120297400536,-18.9276484499892,-11.5531728826003,0.224448427557945,0.245035648345947,0.0390988737344742
15.3923724293569,-12.3120297400536,-18.9276484499892,-11.5531728826003,0.224887520074844,0.245544567704201,0.0392251238226891
15.3923724293569,-12.3120297400536,-18.9276484499892,-11.5531728826003,0.225325301289558,0.246052235364914,0.0393514186143875
15.3923724293569,-12.3120297400536,-18.9276484499892,-11.5531728826003,0.225761771202087,0.246558651328087,0.0394777543842793
15.3923724293569,-12.3120297400536,-18.9276484499892,-11.5531728826003,0.226196929812431,0.247063800692558,0.0396041311323643
15.3923724293569,-12.3120297400536,-18.9276484499892,-11.5531728826003,0.226630792021751,0.247567698359489,0.0397305525839329
15.3923724293569,-12.3120297400536,-18.9276484499892,-11.5531728826003,0.227063357830048,0.248070359230042,0.0398570150136948
15.3923724293569,-12.3120297400536,-18.9276484499892,-11.5531728826003,0.227494612336159,0.248571768403053,0.0399835184216499
15.3923724293569,-12.3120297400536,-18.9276484499892,-11.5531728826003,0.227924570441246,0.249071925878525,0.0401100665330887
15.3923724293569,-12.3120297400536,-18.9276484499892,-11.5531728826003,0.228353232145309,0.249570846557617,0.0402366556227207
15.3923724293569,-12.3120297400536,-18.9276484499892,-11.5531728826003,0.228780597448349,0.250068515539169,0.0403632894158363
15.3923724293569,-12.3120297400536,-18.9276484499892,-11.5531728826003,0.229206666350365,0.250564962625504,0.0404899641871452
15.3923724293569,-12.3120297400536,-18.9276484499892,-11.5531728826003,0.229631453752518,0.251060158014297,0.0406166836619377
15.3923724293569,-12.3120297400536,-18.9276484499892,-11.5531728826003,0.230054944753647,0.251554131507874,0.0407434441149235
15.3923724293569,-12.3120297400536,-18.9276484499892,-11.5531728826003,0.230477139353752,0.252046853303909,0.0408702455461025
15.3923724293569,-12.3120297400536,-18.9276484499892,-11.5531728826003,0.230898052453995,0.252538353204727,0.0409970916807652
15.3923724293569,-12.3120297400536,-18.9276484499892,-11.5531728826003,0.231317684054375,0.253028601408005,0.0411239787936211
15.3923724293569,-12.3120297400536,-18.9276484499892,-11.5531728826003,0.231736034154892,0.253517627716064,0.0412509106099606
15.3923724293569,-12.3120297400536,-18.9276484499892,-11.5531728826003,0.232153102755547,0.254005432128906,0.0413778834044933
15.3923724293569,-12.3120297400536,-18.9276484499892,-11.5531728826003,0.232568889856339,0.25449201464653,0.0415049009025097
15.3923724293569,-12.3120297400536,-18.9276484499892,-11.5531728826003,0.232983395457268,0.254977375268936,0.0416319593787193
15.3923724293569,-12.3120297400536,-18.9276484499892,-11.5531728826003,0.233396619558334,0.255461513996124,0.0417590588331223
15.3923724293569,-12.3120297400536,-18.9276484499892,-11.5531728826003,0.233808577060699,0.255944430828094,0.0418862029910088
15.3923724293569,-12.3120297400536,-18.9276484499892,-11.5531728826003,0.234219253063202,0.256426125764847,0.0420133881270885
15.3923724293569,-12.3120297400536,-18.9276484499892,-11.5531728826003,0.234628662467003,0.256906598806381,0.0421406179666519
15.3923724293569,-12.3120297400536,-18.9276484499892,-11.5531728826003,0.235036805272102,0.257385849952698,0.0422678887844086
15.3923724293569,-12.3120297400536,-18.9276484499892,-11.5531728826003,0.235443666577339,0.257863909006119,0.0423952043056488
15.3923724293569,-12.3120297400536,-18.9276484499892,-11.5531728826003,0.235849261283875,0.258340746164322,0.0425225608050823
15.3923724293569,-12.3120297400536,-18.9276484499892,-11.5531728826003,0.23625360429287,0.258816361427307,0.0426499620079994
15.3923724293569,-12.3120297400536,-18.9276484499892,-11.5531728826003,0.236656680703163,0.259290784597397,0.0427774041891098
15.3923724293569,-12.3120297400536,-18.9276484499892,-11.5531728826003,0.237058490514755,0.259763985872269,0.0429048910737038
15.3923724293569,-12.3120297400536,-18.9276484499892,-11.5531728826003,0.237459048628807,0.260235995054245,0.043032418936491
15.3923724293569,-12.3120297400536,-18.9276484499892,-11.5531728826003,0.237858340144157,0.260706812143326,0.0431599915027618
15.3923724293569,-12.3120297400536,-18.9276484499892,-11.5531728826003,0.238256379961967,0.261176407337189,0.043287605047226
15.3923724293569,-12.3120297400536,-18.9276484499892,-11.5531728826003,0.238653168082237,0.261644810438156,0.0434152632951736
15.3923724293569,-12.3120297400536,-18.9276484499892,-11.5531728826003,0.239048689603806,0.262112021446228,0.0435429625213146
15.3923724293569,-12.3120297400536,-18.9276484499892,-11.5531728826003,0.239442959427834,0.262578040361404,0.0436707064509392
15.3923724293569,-12.3120297400536,-18.9276484499892,-11.5531728826003,0.239835992455482,0.263042867183685,0.043798491358757
15.3923724293569,-12.3120297400536,-18.9276484499892,-11.5531728826003,0.240227773785591,0.263506501913071,0.0439263209700584
15.3923724293569,-12.3120297400536,-18.9276484499892,-11.5531728826003,0.240618303418159,0.263968944549561,0.0440541915595531
15.3923724293569,-12.3120297400536,-18.9276484499892,-11.5531728826003,0.241007596254349,0.264430195093155,0.0441821068525314
15.3923724293569,-12.3120297400536,-18.9276484499892,-11.5531728826003,0.241395637392998,0.264890253543854,0.044310063123703
15.3923724293569,-12.3120297400536,-18.9276484499892,-11.5531728826003,0.241782441735268,0.265349119901657,0.0444380640983582
15.3923724293569,-12.3120297400536,-18.9276484499892,-11.5531728826003,0.242168009281158,0.265806794166565,0.0445661060512066
15.3923724293569,-12.3120297400536,-18.9276484499892,-11.5531728826003,0.242552325129509,0.2662633061409,0.0446941927075386
15.3923724293569,-12.3120297400536,-18.9276484499892,-11.5531728826003,0.242935419082642,0.266718626022339,0.0448223203420639
15.3923724293569,-12.3120297400536,-18.9276484499892,-11.5531728826003,0.243317276239395,0.267172783613205,0.0449504926800728
15.3923724293569,-12.3120297400536,-18.9276484499892,-11.5531728826003,0.24369789659977,0.267625749111176,0.0450787059962749
15.3923724293569,-12.3120297400536,-18.9276484499892,-11.5531728826003,0.244077280163765,0.268077552318573,0.0452069640159607
15.3923724293569,-12.3120297400536,-18.9276484499892,-11.5531728826003,0.244455441832542,0.268528163433075,0.0453352630138397
15.3923724293569,-12.3120297400536,-18.9276484499892,-11.5531728826003,0.244832366704941,0.268977612257004,0.0454636067152023
15.3923724293569,-12.3120297400536,-18.9276484499892,-11.5531728826003,0.245208069682121,0.26942589879036,0.0455919951200485
15.3923724293569,-12.3120297400536,-18.9276484499892,-11.5531728826003,0.245582550764084,0.269873023033142,0.045720424503088
15.3923724293569,-12.3120297400536,-18.9276484499892,-11.5531728826003,0.245955809950829,0.270318984985352,0.0458488985896111
15.3923724293569,-12.3120297400536,-18.9276484499892,-11.5531728826003,0.246327847242355,0.270763784646988,0.0459774136543274
15.3923724293569,-12.3120297400536,-18.9276484499892,-11.5531728826003,0.246698662638664,0.271207422018051,0.0461059734225273
15.3923724293569,-12.3120297400536,-18.9276484499892,-11.5531728826003,0.247068256139755,0.271649897098541,0.0462345741689205
15.3923724293569,-12.3120297400536,-18.9276484499892,-11.5531728826003,0.247436627745628,0.272091209888458,0.0463632196187973
15.3923724293569,-12.3120297400536,-18.9276484499892,-11.5531728826003,0.247803792357445,0.272531360387802,0.0464919097721577
15.3923724293569,-12.3120297400536,-18.9276484499892,-11.5531728826003,0.248169735074043,0.272970348596573,0.0466206409037113
15.3923724293569,-12.3120297400536,-18.9276484499892,-11.5531728826003,0.248534470796585,0.273408174514771,0.0467494167387486
15.3923724293569,-12.3120297400536,-18.9276484499892,-11.5531728826003,0.24889799952507,0.273844867944717,0.0468782335519791
15.3923724293569,-12.3120297400536,-18.9276484499892,-11.5531728826003,0.249260321259499,0.274280399084091,0.0470070950686932
15.3923724293569,-12.3120297400536,-18.9276484499892,-11.5531728826003,0.24962143599987,0.274714797735214,0.0471360012888908
15.3923724293569,-12.3120297400536,-18.9276484499892,-11.5531728826003,0.249981343746185,0.275148034095764,0.0472649484872818
15.3923724293569,-12.3120297400536,-18.9276484499892,-11.5531728826003,0.250340044498444,0.275580137968063,0.0473939403891563
15.3923724293569,-12.3120297400536,-18.9276484499892,-11.5531728826003,0.250697553157806,0.276011079549789,0.0475229732692242
15.3923724293569,-12.3120297400536,-18.9276484499892,-11.5531728826003,0.251053869724274,0.276440888643265,0.0476520508527756
15.3923724293569,-12.3120297400536,-18.9276484499892,-11.5531728826003,0.251408964395523,0.276869565248489,0.0477811731398106
15.3923724293569,-12.3120297400536,-18.9276484499892,-11.5531728826003,0.251762866973877,0.277297109365463,0.0479103364050388
15.3923724293569,-12.3120297400536,-18.9276484499892,-11.5531728826003,0.252115577459335,0.277723491191864,0.0480395443737507
15.3923724293569,-12.3120297400536,-18.9276484499892,-11.5531728826003,0.252467095851898,0.278148740530014,0.0481687933206558
15.3923724293569,-12.3120297400536,-18.9276484499892,-11.5531728826003,0.252817422151566,0.278572857379913,0.0482980869710445
15.3923724293569,-12.3120297400536,-18.9276484499892,-11.5531728826003,0.253166556358337,0.278995841741562,0.0484274253249168
15.3923724293569,-12.3120297400536,-18.9276484499892,-11.5531728826003,0.253514498472214,0.27941769361496,0.0485568046569824
15.3923724293569,-12.3120297400536,-18.9276484499892,-11.5531728826003,0.253861248493195,0.279838442802429,0.0486862286925316
15.3923724293569,-12.3120297400536,-18.9276484499892,-11.5531728826003,0.254206836223602,0.280258059501648,0.0488156974315643
15.3923724293569,-12.3120297400536,-18.9276484499892,-11.5531728826003,0.254551231861115,0.280676543712616,0.0489452071487904
15.3923724293569,-12.3120297400536,-18.9276484499892,-11.5531728826003,0.254894435405731,0.281093895435333,0.0490747615695
15.3923724293569,-12.3120297400536,-18.9276484499892,-11.5531728826003,0.255236476659775,0.281510144472122,0.0492043606936932
15.3923724293569,-12.3120297400536,-18.9276484499892,-11.5531728826003,0.255577325820923,0.28192526102066,0.0493340007960796
15.3923724293569,-12.3120297400536,-18.9276484499892,-11.5531728826003,0.255917012691498,0.28233927488327,0.0494636856019497
15.3923724293569,-12.3120297400536,-18.9276484499892,-11.5531728826003,0.256255507469177,0.282752156257629,0.0495934151113033
15.3923724293569,-12.3120297400536,-18.9276484499892,-11.5531728826003,0.256592839956284,0.28316393494606,0.0497231855988503
15.3923724293569,-12.3120297400536,-18.9276484499892,-11.5531728826003,0.256928980350494,0.283574610948563,0.0498530007898808
15.3923724293569,-12.3120297400536,-18.9276484499892,-11.5531728826003,0.257263958454132,0.283984154462814,0.0499828606843948
15.3923724293569,-12.3120297400536,-18.9276484499892,-11.5531728826003,0.257597774267197,0.284392595291138,0.0501127615571022
15.3923724293569,-12.3120297400536,-18.9276484499892,-11.5531728826003,0.257930427789688,0.284799933433533,0.0502427071332932
15.3923724293569,-12.3120297400536,-18.9276484499892,-11.5531728826003,0.258261919021606,0.285206168889999,0.0503726974129677
15.3923724293569,-12.3120297400536,-18.9276484499892,-11.5531728826003,0.258592218160629,0.285611301660538,0.0505027286708355
15.3923724293569,-12.3120297400536,-18.9276484499892,-11.5531728826003,0.258921355009079,0.286015331745148,0.0506328046321869
15.3923724293569,-12.3120297400536,-18.9276484499892,-11.5531728826003,0.259249329566956,0.286418259143829,0.0507629252970219
15.3923724293569,-12.3120297400536,-18.9276484499892,-11.5531728826003,0.259576171636581,0.286820083856583,0.0508930869400501
15.3923724293569,-12.3120297400536,-18.9276484499892,-11.5531728826003,0.259901851415634,0.287220805883408,0.051023293286562
15.3923724293569,-12.3120297400536,-18.9276484499892,-11.5531728826003,0.260226368904114,0.287620425224304,0.0511535443365574
15.3923724293569,-12.3120297400536,-18.9276484499892,-11.5531728826003,0.26054972410202,0.288018971681595,0.0512838363647461
15.3923724293569,-12.3120297400536,-18.9276484499892,-11.5531728826003,0.260871946811676,0.288416415452957,0.0514141730964184
15.3923724293569,-12.3120297400536,-18.9276484499892,-11.5531728826003,0.261193007230759,0.288812786340714,0.0515445545315742
15.3923724293569,-12.3120297400536,-18.9276484499892,-11.5531728826003,0.261512905359268,0.289208054542542,0.0516749806702137
15.3923724293569,-12.3120297400536,-18.9276484499892,-11.5531728826003,0.261831670999527,0.289602249860764,0.0518054477870464
15.3923724293569,-12.3120297400536,-18.9276484499892,-11.5531728826003,0.262149274349213,0.289995342493057,0.0519359596073627
15.3923724293569,-12.3120297400536,-18.9276484499892,-11.5531728826003,0.262465745210648,0.290387362241745,0.0520665161311626
15.3923724293569,-12.3120297400536,-18.9276484499892,-11.5531728826003,0.262781083583832,0.290778279304504,0.0521971136331558
15.3923724293569,-12.3120297400536,-18.9276484499892,-11.5531728826003,0.263095259666443,0.291168123483658,0.0523277558386326
15.3923724293569,-12.3120297400536,-18.9276484499892,-11.5531728826003,0.263408303260803,0.291556894779205,0.0524584427475929
15.3923724293569,-12.3120297400536,-18.9276484499892,-11.5531728826003,0.263720214366913,0.291944593191147,0.0525891743600369
15.3923724293569,-12.3120297400536,-18.9276484499892,-11.5531728826003,0.264030992984772,0.292331218719482,0.0527199469506741
15.3923724293569,-12.3120297400536,-18.9276484499892,-11.5531728826003,0.26434063911438,0.292716771364212,0.0528507642447948
15.3923724293569,-12.3120297400536,-18.9276484499892,-11.5531728826003,0.264649122953415,0.293101251125336,0.0529816262423992
15.3923724293569,-12.3120297400536,-18.9276484499892,-11.5531728826003,0.264956474304199,0.293484658002853,0.0531125329434872
15.3923724293569,-12.3120297400536,-18.9276484499892,-11.5531728826003,0.265262722969055,0.293866991996765,0.0532434806227684
15.3923724293569,-12.3120297400536,-18.9276484499892,-11.5531728826003,0.26556783914566,0.294248253107071,0.0533744730055332
15.3923724293569,-12.3120297400536,-18.9276484499892,-11.5531728826003,0.265871822834015,0.294628471136093,0.0535055100917816
15.3923724293569,-12.3120297400536,-18.9276484499892,-11.5531728826003,0.266174674034119,0.295007616281509,0.0536365918815136
15.3923724293569,-12.3120297400536,-18.9276484499892,-11.5531728826003,0.266476392745972,0.29538568854332,0.0537677146494389
15.3923724293569,-12.3120297400536,-18.9276484499892,-11.5531728826003,0.266777008771896,0.295762717723846,0.0538988821208477
15.3923724293569,-12.3120297400536,-18.9276484499892,-11.5531728826003,0.26707649230957,0.296138674020767,0.0540300942957401
15.3923724293569,-12.3120297400536,-18.9276484499892,-11.5531728826003,0.267374873161316,0.296513587236404,0.0541613511741161
15.3923724293569,-12.3120297400536,-18.9276484499892,-11.5531728826003,0.267672121524811,0.296887427568436,0.0542926527559757
15.3923724293569,-12.3120297400536,-18.9276484499892,-11.5531728826003,0.267968267202377,0.297260224819183,0.0544239953160286
15.3923724293569,-12.3120297400536,-18.9276484499892,-11.5531728826003,0.268263280391693,0.297631978988647,0.054555382579565
15.3923724293569,-12.3120297400536,-18.9276484499892,-11.5531728826003,0.268557190895081,0.298002660274506,0.0546868145465851
15.3923724293569,-12.3120297400536,-18.9276484499892,-11.5531728826003,0.26884999871254,0.29837229847908,0.0548182912170887
15.3923724293569,-12.3120297400536,-18.9276484499892,-11.5531728826003,0.269141674041748,0.298740893602371,0.0549498125910759
15.3923724293569,-12.3120297400536,-18.9276484499892,-11.5531728826003,0.269432246685028,0.299108445644379,0.0550813749432564
15.3923724293569,-12.3120297400536,-18.9276484499892,-11.5531728826003,0.26972171664238,0.299474954605103,0.0552129819989204
15.3923724293569,-12.3120297400536,-18.9276484499892,-11.5531728826003,0.270010083913803,0.299840420484543,0.0553446337580681
15.3923724293569,-12.3120297400536,-18.9276484499892,-11.5531728826003,0.270297348499298,0.3002048432827,0.0554763302206993
15.3923724293569,-12.3120297400536,-18.9276484499892,-11.5531728826003,0.270583510398865,0.300568222999573,0.0556080713868141
15.3923724293569,-12.3120297400536,-18.9276484499892,-11.5531728826003,0.270868569612503,0.300930559635162,0.0557398535311222
15.3923724293569,-12.3120297400536,-18.9276484499892,-11.5531728826003,0.271152526140213,0.301291882991791,0.0558716803789139
15.3923724293569,-12.3120297400536,-18.9276484499892,-11.5531728826003,0.271435379981995,0.301652163267136,0.0560035519301891
15.3923724293569,-12.3120297400536,-18.9276484499892,-11.5531728826003,0.27171716094017,0.302011400461197,0.056135468184948
15.3923724293569,-12.3120297400536,-18.9276484499892,-11.5531728826003,0.271997839212418,0.302369624376297,0.0562674291431904
15.3923724293569,-12.3120297400536,-18.9276484499892,-11.5531728826003,0.272277414798737,0.302726805210114,0.0563994348049164
15.3923724293569,-12.3120297400536,-18.9276484499892,-11.5531728826003,0.27255591750145,0.303082972764969,0.0565314814448357
15.3923724293569,-12.3120297400536,-18.9276484499892,-11.5531728826003,0.272833317518234,0.303438127040863,0.0566635727882385
15.3923724293569,-12.3120297400536,-18.9276484499892,-11.5531728826003,0.273109614849091,0.303792238235474,0.056795708835125
15.3923724293569,-12.3120297400536,-18.9276484499892,-11.5531728826003,0.273384839296341,0.304145336151123,0.056927889585495
15.3923724293569,-12.3120297400536,-18.9276484499892,-11.5531728826003,0.273658990859985,0.304497420787811,0.0570601150393486
15.3923724293569,-12.3120297400536,-18.9276484499892,-11.5531728826003,0.273932039737701,0.304848462343216,0.0571923851966858
15.3923724293569,-12.3120297400536,-18.9276484499892,-11.5531728826003,0.274204015731812,0.305198490619659,0.0573246963322163
15.3923724293569,-12.3120297400536,-18.9276484499892,-11.5531728826003,0.274474918842316,0.305547505617142,0.0574570521712303
15.3923724293569,-12.3120297400536,-18.9276484499892,-11.5531728826003,0.274744749069214,0.305895507335663,0.057589452713728
15.3923724293569,-12.3120297400536,-18.9276484499892,-11.5531728826003,0.275013476610184,0.306242495775223,0.0577218979597092
15.3923724293569,-12.3120297400536,-18.9276484499892,-11.5531728826003,0.275281131267548,0.306588470935822,0.057854387909174
15.3923724293569,-12.3120297400536,-18.9276484499892,-11.5531728826003,0.275547713041306,0.306933462619781,0.0579869225621223
15.3923724293569,-12.3120297400536,-18.9276484499892,-11.5531728826003,0.275813221931458,0.30727744102478,0.0581195019185543
15.3923724293569,-12.3120297400536,-18.9276484499892,-11.5531728826003,0.276077657938004,0.307620406150818,0.0582521259784698
15.3923724293569,-12.3120297400536,-18.9276484499892,-11.5531728826003,0.276341050863266,0.307962357997894,0.0583847910165787
15.3923724293569,-12.3120297400536,-18.9276484499892,-11.5531728826003,0.276603370904922,0.308303326368332,0.0585175007581711
15.3923724293569,-12.3120297400536,-18.9276484499892,-11.5531728826003,0.276864618062973,0.308643281459808,0.0586502552032471
15.3923724293569,-12.3120297400536,-18.9276484499892,-11.5531728826003,0.277124792337418,0.308982253074646,0.0587830543518066
15.3923724293569,-12.3120297400536,-18.9276484499892,-11.5531728826003,0.277383923530579,0.309320211410522,0.0589158982038498
15.3923724293569,-12.3120297400536,-18.9276484499892,-11.5531728826003,0.277641981840134,0.30965718626976,0.0590487867593765
15.3923724293569,-12.3120297400536,-18.9276484499892,-11.5531728826003,0.277898967266083,0.309993147850037,0.0591817200183868
15.3923724293569,-12.3120297400536,-18.9276484499892,-11.5531728826003,0.278154909610748,0.310328125953674,0.0593146979808807
15.3923724293569,-12.3120297400536,-18.9276484499892,-11.5531728826003,0.278409779071808,0.310662120580673,0.0594477206468582
15.3923724293569,-12.3120297400536,-18.9276484499892,-11.5531728826003,0.278663605451584,0.310995131731033,0.059580784291029
15.3923724293569,-12.3120297400536,-18.9276484499892,-11.5531728826003,0.278916388750076,0.311327129602432,0.0597138926386833
15.3923724293569,-12.3120297400536,-18.9276484499892,-11.5531728826003,0.279168099164963,0.311658143997192,0.0598470456898212
15.3923724293569,-12.3120297400536,-18.9276484499892,-11.5531728826003,0.279418766498566,0.311988174915314,0.0599802434444427
15.3923724293569,-12.3120297400536,-18.9276484499892,-11.5531728826003,0.279668390750885,0.312317222356796,0.0601134859025478
15.3923724293569,-12.3120297400536,-18.9276484499892,-11.5531728826003,0.279916971921921,0.31264528632164,0.0602467730641365
15.3923724293569,-12.3120297400536,-18.9276484499892,-11.5531728826003,0.280164510011673,0.312972366809845,0.0603801049292088
15.3923724293569,-12.3120297400536,-18.9276484499892,-11.5531728826003,0.280411005020142,0.313298493623734,0.0605134814977646
15.3923724293569,-12.3120297400536,-18.9276484499892,-11.5531728826003,0.280656456947327,0.313623636960983,0.060646902769804
15.3923724293569,-12.3120297400536,-18.9276484499892,-11.5531728826003,0.280900865793228,0.313947796821594,0.060780368745327
15.3923724293569,-12.3120297400536,-18.9276484499892,-11.5531728826003,0.281144231557846,0.314271003007889,0.0609138794243336
15.3923724293569,-12.3120297400536,-18.9276484499892,-11.5531728826003,0.28138655424118,0.314593225717545,0.0610474348068237
15.3923724293569,-12.3120297400536,-18.9276484499892,-11.5531728826003,0.281627833843231,0.314914464950562,0.0611810348927975
15.3923724293569,-12.3120297400536,-18.9276484499892,-11.5531728826003,0.281868100166321,0.315234750509262,0.0613146796822548
15.3923724293569,-12.3120297400536,-18.9276484499892,-11.5531728826003,0.282107323408127,0.315554052591324,0.0614483691751957
15.3923724293569,-12.3120297400536,-18.9276484499892,-11.5531728826003,0.282345503568649,0.315872400999069,0.0615820996463299
15.3923724293569,-12.3120297400536,-18.9276484499892,-11.5531728826003,0.282582670450211,0.316189795732498,0.0617158748209476
15.3923724293569,-12.3120297400536,-18.9276484499892,-11.5531728826003,0.282818794250488,0.316506206989288,0.061849694699049
15.3923724293569,-12.3120297400536,-18.9276484499892,-11.5531728826003,0.283053904771805,0.316821664571762,0.0619835592806339
15.3923724293569,-12.3120297400536,-18.9276484499892,-11.5531728826003,0.283287972211838,0.317136168479919,0.0621174685657024
15.3923724293569,-12.3120297400536,-18.9276484499892,-11.5531728826003,0.28352102637291,0.31744971871376,0.0622514225542545
15.3923724293569,-12.3120297400536,-18.9276484499892,-11.5531728826003,0.28375306725502,0.317762315273285,0.0623854212462902
15.3923724293569,-12.3120297400536,-18.9276484499892,-11.5531728826003,0.283984065055847,0.318073958158493,0.0625194683670998
15.3923724293569,-12.3120297400536,-18.9276484499892,-11.5531728826003,0.284214049577713,0.318384647369385,0.0626535564661026
15.3923724293569,-12.3120297400536,-18.9276484499892,-11.5531728826003,0.284443020820618,0.31869438290596,0.062787689268589
15.3923724293569,-12.3120297400536,-18.9276484499892,-11.5531728826003,0.284670978784561,0.319003164768219,0.062921866774559
15.3923724293569,-12.3120297400536,-18.9276484499892,-11.5531728826003,0.284897923469543,0.319310992956162,0.0630560889840126
15.3923724293569,-12.3120297400536,-18.9276484499892,-11.5531728826003,0.285123854875565,0.31961789727211,0.0631903558969498
15.3923724293569,-12.3120297400536,-18.9276484499892,-11.5531728826003,0.285348773002625,0.319923847913742,0.0633246675133705
15.3923724293569,-12.3120297400536,-18.9276484499892,-11.5531728826003,0.285572677850723,0.320228844881058,0.0634590238332748
15.3923724293569,-12.3120297400536,-18.9276484499892,-11.5531728826003,0.285795569419861,0.320532917976379,0.0635934248566628
15.3923724293569,-12.3120297400536,-18.9276484499892,-11.5531728826003,0.286017447710037,0.320836037397385,0.0637278705835342
15.3923724293569,-12.3120297400536,-18.9276484499892,-11.5531728826003,0.286238312721252,0.321138232946396,0.0638623610138893
15.3923724293569,-12.3120297400536,-18.9276484499892,-11.5531728826003,0.286458194255829,0.321439474821091,0.063996896147728
15.3923724293569,-12.3120297400536,-18.9276484499892,-11.5531728826003,0.286677062511444,0.321739792823792,0.0641314759850502
15.3923724293569,-12.3120297400536,-18.9276484499892,-11.5531728826003,0.286894917488098,0.322039157152176,0.064266100525856
15.3923724293569,-12.3120297400536,-18.9276484499892,-11.5531728826003,0.287111788988113,0.322337597608566,0.0644007697701454
15.3923724293569,-12.3120297400536,-18.9276484499892,-11.5531728826003,0.287327647209167,0.322635114192963,0.0645354837179184
15.3923724293569,-12.3120297400536,-18.9276484499892,-11.5531728826003,0.287542521953583,0.322931706905365,0.064670242369175
15.3923724293569,-12.3120297400536,-18.9276484499892,-11.5531728826003,0.287756383419037,0.323227375745773,0.0648050457239151
15.3923724293569,-12.3120297400536,-18.9276484499892,-11.5531728826003,0.287969261407852,0.323522120714188,0.0649398937821388
15.3923724293569,-12.3120297400536,-18.9276484499892,-11.5531728826003,0.288181155920029,0.323815941810608,0.0650747865438461
15.3923724293569,-12.3120297400536,-18.9276484499892,-11.5531728826003,0.288392066955566,0.324108839035034,0.065209724009037
15.3923724293569,-12.3120297400536,-18.9276484499892,-11.5531728826003,0.288601964712143,0.324400812387466,0.0653447061777115
15.3923724293569,-12.3120297400536,-18.9276484499892,-11.5531728826003,0.288810878992081,0.324691861867905,0.0654797330498695
15.3923724293569,-12.3120297400536,-18.9276484499892,-11.5531728826003,0.28901880979538,0.324981987476349,0.0656148046255112
15.3923724293569,-12.3120297400536,-18.9276484499892,-11.5531728826003,0.28922575712204,0.325271189212799,0.0657499209046364
15.3923724293569,-12.3120297400536,-18.9276484499892,-11.5531728826003,0.289431720972061,0.325559496879578,0.0658850818872452
15.3923724293569,-12.3120297400536,-18.9276484499892,-11.5531728826003,0.289636701345444,0.325846880674362,0.0660202875733376
15.3923724293569,-12.3120297400536,-18.9276484499892,-11.5531728826003,0.289840698242188,0.326133370399475,0.0661555379629135
15.3923724293569,-12.3120297400536,-18.9276484499892,-11.5531728826003,0.290043711662292,0.326418936252594,0.0662908330559731
15.3923724293569,-12.3120297400536,-18.9276484499892,-11.5531728826003,0.290245741605759,0.326703608036041,0.0664261728525162
15.3923724293569,-12.3120297400536,-18.9276484499892,-11.5531728826003,0.290446817874908,0.326987355947495,0.0665615573525429
15.3923724293569,-12.3120297400536,-18.9276484499892,-11.5531728826003,0.290646910667419,0.327270209789276,0.0666969865560532
15.3923724293569,-12.3120297400536,-18.9276484499892,-11.5531728826003,0.290846019983292,0.327552139759064,0.066832460463047
15.3923724293569,-12.3120297400536,-18.9276484499892,-11.5531728826003,0.291044175624847,0.32783317565918,0.0669679865241051
15.3923724293569,-12.3120297400536,-18.9276484499892,-11.5531728826003,0.291241347789764,0.328113317489624,0.0671035572886467
15.3923724293569,-12.3120297400536,-18.9276484499892,-11.5531728826003,0.291437566280365,0.328392565250397,0.0672391727566719
15.3923724293569,-12.3120297400536,-18.9276484499892,-11.5531728826003,0.291632801294327,0.328670918941498,0.0673748329281807
15.3923724293569,-12.3120297400536,-18.9276484499892,-11.5531728826003,0.291827082633972,0.328948378562927,0.0675105378031731
15.3923724293569,-12.3120297400536,-18.9276484499892,-11.5531728826003,0.292020380496979,0.329224944114685,0.067646287381649
15.3923724293569,-12.3120297400536,-18.9276484499892,-11.5531728826003,0.292212724685669,0.329500615596771,0.0677820816636086
15.3923724293569,-12.3120297400536,-18.9276484499892,-11.5531728826003,0.292404115200043,0.329775393009186,0.0679179206490517
15.3923724293569,-12.3120297400536,-18.9276484499892,-11.5531728826003,0.2925945520401,0.330049276351929,0.0680538043379784
15.3923724293569,-12.3120297400536,-18.9276484499892,-11.5531728826003,0.292784035205841,0.330322265625,0.0681897327303886
15.3923724293569,-12.3120297400536,-18.9276484499892,-11.5531728826003,0.292972534894943,0.3305943608284,0.0683257058262825
15.3923724293569,-12.3120297400536,-18.9276484499892,-11.5531728826003,0.293160080909729,0.33086559176445,0.0684617236256599
15.3923724293569,-12.3120297400536,-18.9276484499892,-11.5531728826003,0.293346673250198,0.331135928630829,0.068597786128521
15.3923724293569,-12.3120297400536,-18.9276484499892,-11.5531728826003,0.293532311916351,0.331405371427536,0.0687338933348656
15.3923724293569,-12.3120297400536,-18.9276484499892,-11.5531728826003,0.293716996908188,0.331673949956894,0.0688700452446938
15.3923724293569,-12.3120297400536,-18.9276484499892,-11.5531728826003,0.29390075802803,0.33194163441658,0.0690062418580055
15.3923724293569,-12.3120297400536,-18.9276484499892,-11.5531728826003,0.294083565473557,0.332208454608917,0.0691424831748009
15.3923724293569,-12.3120297400536,-18.9276484499892,-11.5531728826003,0.294265419244766,0.332474380731583,0.0692787691950798
15.3923724293569,-12.3120297400536,-18.9276484499892,-11.5531728826003,0.29444631934166,0.332739442586899,0.0694150999188423
15.3923724293569,-12.3120297400536,-18.9276484499892,-11.5531728826003,0.294626295566559,0.333003640174866,0.0695514753460884
15.3923724293569,-12.3120297400536,-18.9276484499892,-11.5531728826003,0.294805318117142,0.333266973495483,0.0696879029273987
15.3923724293569,-12.3120297400536,-18.9276484499892,-11.5531728826003,0.294983386993408,0.333529412746429,0.0698243752121925
15.3923724293569,-12.3120297400536,-18.9276484499892,-11.5531728826003,0.295160531997681,0.333790987730026,0.06996089220047
15.3923724293569,-12.3120297400536,-18.9276484499892,-11.5531728826003,0.295336723327637,0.334051698446274,0.070097453892231
15.3923724293569,-12.3120297400536,-18.9276484499892,-11.5531728826003,0.295511990785599,0.334311544895172,0.0702340602874756
15.3923724293569,-12.3120297400536,-18.9276484499892,-11.5531728826003,0.295686334371567,0.334570527076721,0.0703707113862038
15.3923724293569,-12.3120297400536,-18.9276484499892,-11.5531728826003,0.295859724283218,0.334828644990921,0.0705074071884155
15.3923724293569,-12.3120297400536,-18.9276484499892,-11.5531728826003,0.296032190322876,0.335085898637772,0.0706441476941109
15.3923724293569,-12.3120297400536,-18.9276484499892,-11.5531728826003,0.29620373249054,0.335342317819595,0.0707809329032898
15.3923724293569,-12.3120297400536,-18.9276484499892,-11.5531728826003,0.296374350786209,0.33559787273407,0.0709177628159523
15.3923724293569,-12.3120297400536,-18.9276484499892,-11.5531728826003,0.296544045209885,0.335852563381195,0.0710546374320984
15.3923724293569,-12.3120297400536,-18.9276484499892,-11.5531728826003,0.296712785959244,0.336106389760971,0.0711915567517281
15.3923724293569,-12.3120297400536,-18.9276484499892,-11.5531728826003,0.296880602836609,0.33635938167572,0.0713285207748413
15.3923724293569,-12.3120297400536,-18.9276484499892,-11.5531728826003,0.29704749584198,0.33661150932312,0.0714655369520187
15.3923724293569,-12.3120297400536,-18.9276484499892,-11.5531728826003,0.297213494777679,0.336862802505493,0.0716025978326797
15.3923724293569,-12.3120297400536,-18.9276484499892,-11.5531728826003,0.297378569841385,0.337113231420517,0.0717397034168243
15.3923724293569,-12.3120297400536,-18.9276484499892,-11.5531728826003,0.297542721033096,0.337362825870514,0.0718768537044525
15.3923724293569,-12.3120297400536,-18.9276484499892,-11.5531728826003,0.297705948352814,0.337611585855484,0.0720140486955643
15.3923724293569,-12.3120297400536,-18.9276484499892,-11.5531728826003,0.297868251800537,0.337859481573105,0.0721512883901596
15.3923724293569,-12.3120297400536,-18.9276484499892,-11.5531728826003,0.298029661178589,0.338106542825699,0.0722885727882385
15.3923724293569,-12.3120297400536,-18.9276484499892,-11.5531728826003,0.298190146684647,0.338352769613266,0.072425901889801
15.3923724293569,-12.3120297400536,-18.9276484499892,-11.5531728826003,0.29834970831871,0.338598161935806,0.0725632756948471
15.3923724293569,-12.3120297400536,-18.9276484499892,-11.5531728826003,0.298508375883102,0.338842689990997,0.0727006942033768
15.3923724293569,-12.3120297400536,-18.9276484499892,-11.5531728826003,0.2986661195755,0.339086383581162,0.07283815741539
15.3923724293569,-12.3120297400536,-18.9276484499892,-11.5531728826003,0.298822969198227,0.339329242706299,0.0729756727814674
15.3923724293569,-12.3120297400536,-18.9276484499892,-11.5531728826003,0.298978924751282,0.339571267366409,0.0731132328510284
15.3923724293569,-12.3120297400536,-18.9276484499892,-11.5531728826003,0.299133956432343,0.339812487363815,0.073250837624073
15.3923724293569,-12.3120297400536,-18.9276484499892,-11.5531728826003,0.299288094043732,0.340052872896194,0.0733884871006012
15.3923724293569,-12.3120297400536,-18.9276484499892,-11.5531728826003,0.299441337585449,0.340292423963547,0.0735261812806129
15.3923724293569,-12.3120297400536,-18.9276484499892,-11.5531728826003,0.299593657255173,0.340531140565872,0.0736639201641083
15.3923724293569,-12.3120297400536,-18.9276484499892,-11.5531728826003,0.299745082855225,0.340769022703171,0.0738017037510872
15.3923724293569,-12.3120297400536,-18.9276484499892,-11.5531728826003,0.299895614385605,0.341006100177765,0.0739395320415497
15.3923724293569,-12.3120297400536,-18.9276484499892,-11.5531728826003,0.300045251846313,0.341242343187332,0.0740774050354958
15.3923724293569,-12.3120297400536,-18.9276484499892,-11.5531728826003,0.30019399523735,0.341477781534195,0.0742153227329254
15.3923724293569,-12.3120297400536,-18.9276484499892,-11.5531728826003,0.300341844558716,0.341712385416031,0.0743532925844193
15.3923724293569,-12.3120297400536,-18.9276484499892,-11.5531728826003,0.30048879981041,0.341946184635162,0.0744913071393967
15.3923724293569,-12.3120297400536,-18.9276484499892,-11.5531728826003,0.300634860992432,0.342179149389267,0.0746293663978577
15.3923724293569,-12.3120297400536,-18.9276484499892,-11.5531728826003,0.300780057907104,0.342411309480667,0.0747674703598022
15.3923724293569,-12.3120297400536,-18.9276484499892,-11.5531728826003,0.300924360752106,0.342642664909363,0.0749056190252304
15.3923724293569,-12.3120297400536,-18.9276484499892,-11.5531728826003,0.301067769527435,0.342873185873032,0.0750438123941422
15.3923724293569,-12.3120297400536,-18.9276484499892,-11.5531728826003,0.301210284233093,0.343102902173996,0.0751820504665375
15.3923724293569,-12.3120297400536,-18.9276484499892,-11.5531728826003,0.301351934671402,0.343331813812256,0.0753203332424164
15.3923724293569,-12.3120297400536,-18.9276484499892,-11.5531728826003,0.301492691040039,0.343559920787811,0.0754586607217789
15.3923724293569,-12.3120297400536,-18.9276484499892,-11.5531728826003,0.301632583141327,0.343787223100662,0.0755970403552055
15.3923724293569,-12.3120297400536,-18.9276484499892,-11.5531728826003,0.301771581172943,0.344013720750809,0.0757354646921158
15.3923724293569,-12.3120297400536,-18.9276484499892,-11.5531728826003,0.30190971493721,0.344239413738251,0.0758739337325096
15.3923724293569,-12.3120297400536,-18.9276484499892,-11.5531728826003,0.302046954631805,0.344464302062988,0.076012447476387
15.3923724293569,-12.3120297400536,-18.9276484499892,-11.5531728826003,0.302183330059052,0.344688385725021,0.076151005923748
15.3923724293569,-12.3120297400536,-18.9276484499892,-11.5531728826003,0.302318841218948,0.34491166472435,0.0762896090745926
15.3923724293569,-12.3120297400536,-18.9276484499892,-11.5531728826003,0.302453458309174,0.345134139060974,0.0764282569289207
15.3923724293569,-12.3120297400536,-18.9276484499892,-11.5531728826003,0.30258721113205,0.345355838537216,0.0765669569373131
15.3923724293569,-12.3120297400536,-18.9276484499892,-11.5531728826003,0.302720099687576,0.345576733350754,0.076705701649189
15.3923724293569,-12.3120297400536,-18.9276484499892,-11.5531728826003,0.302852123975754,0.345796823501587,0.0768444910645485
15.3923724293569,-12.3120297400536,-18.9276484499892,-11.5531728826003,0.302983283996582,0.346016138792038,0.0769833251833916
15.3923724293569,-12.3120297400536,-18.9276484499892,-11.5531728826003,0.303113579750061,0.346234649419785,0.0771222040057182
15.3923724293569,-12.3120297400536,-18.9276484499892,-11.5531728826003,0.303243011236191,0.346452385187149,0.0772611275315285
15.3923724293569,-12.3120297400536,-18.9276484499892,-11.5531728826003,0.303371578454971,0.346669346094131,0.0774000957608223
15.3923724293569,-12.3120297400536,-18.9276484499892,-11.5531728826003,0.303499281406403,0.346885502338409,0.0775391086935997
15.3923724293569,-12.3120297400536,-18.9276484499892,-11.5531728826003,0.303626120090485,0.347100883722305,0.0776781737804413
15.3923724293569,-12.3120297400536,-18.9276484499892,-11.5531728826003,0.30375212430954,0.347315490245819,0.0778172835707664
15.3923724293569,-12.3120297400536,-18.9276484499892,-11.5531728826003,0.303877264261246,0.347529292106628,0.0779564380645752
15.3923724293569,-12.3120297400536,-18.9276484499892,-11.5531728826003,0.304001539945602,0.347742319107056,0.0780956372618675
15.3923724293569,-12.3120297400536,-18.9276484499892,-11.5531728826003,0.30412495136261,0.347954571247101,0.0782348811626434
15.3923724293569,-12.3120297400536,-18.9276484499892,-11.5531728826003,0.30424752831459,0.348166048526764,0.0783741697669029
15.3923724293569,-12.3120297400536,-18.9276484499892,-11.5531728826003,0.304369240999222,0.348376750946045,0.078513503074646
15.3923724293569,-12.3120297400536,-18.9276484499892,-11.5531728826003,0.304490119218826,0.348586678504944,0.0786528885364532
15.3923724293569,-12.3120297400536,-18.9276484499892,-11.5531728826003,0.304610133171082,0.348795831203461,0.0787923187017441
15.3923724293569,-12.3120297400536,-18.9276484499892,-11.5531728826003,0.30472931265831,0.349004209041595,0.0789317935705185
15.3923724293569,-12.3120297400536,-18.9276484499892,-11.5531728826003,0.304847657680511,0.349211812019348,0.0790713131427765
15.3923724293569,-12.3120297400536,-18.9276484499892,-11.5531728826003,0.304965138435364,0.349418669939041,0.0792108774185181
15.3923724293569,-12.3120297400536,-18.9276484499892,-11.5531728826003,0.305081784725189,0.349624752998352,0.0793504863977432
15.3923724293569,-12.3120297400536,-18.9276484499892,-11.5531728826003,0.305197596549988,0.349830061197281,0.0794901475310326
15.3923724293569,-12.3120297400536,-18.9276484499892,-11.5531728826003,0.30531257390976,0.35003462433815,0.0796298533678055
15.3923724293569,-12.3120297400536,-18.9276484499892,-11.5531728826003,0.305426716804504,0.350238412618637,0.079769603908062
15.3923724293569,-12.3120297400536,-18.9276484499892,-11.5531728826003,0.305540025234222,0.350441455841064,0.0799093991518021
15.3923724293569,-12.3120297400536,-18.9276484499892,-11.5531728826003,0.305652499198914,0.35064372420311,0.0800492390990257
15.3923724293569,-12.3120297400536,-18.9276484499892,-11.5531728826003,0.305764138698578,0.350845247507095,0.080189123749733
15.3923724293569,-12.3120297400536,-18.9276484499892,-11.5531728826003,0.305874943733215,0.351045995950699,0.0803290605545044
15.3923724293569,-12.3120297400536,-18.9276484499892,-11.5531728826003,0.305984914302826,0.351245999336243,0.0804690420627594
15.3923724293569,-12.3120297400536,-18.9276484499892,-11.5531728826003,0.30609405040741,0.351445257663727,0.080609068274498
15.3923724293569,-12.3120297400536,-18.9276484499892,-11.5531728826003,0.306202352046967,0.351643741130829,0.0807491391897202
15.3923724293569,-12.3120297400536,-18.9276484499892,-11.5531728826003,0.306309819221497,0.351841479539871,0.0808892548084259
15.3923724293569,-12.3120297400536,-18.9276484499892,-11.5531728826003,0.306416481733322,0.352038472890854,0.0810294151306152
15.3923724293569,-12.3120297400536,-18.9276484499892,-11.5531728826003,0.306522309780121,0.352234721183777,0.0811696276068687
15.3923724293569,-12.3120297400536,-18.9276484499892,-11.5531728826003,0.306627303361893,0.35243022441864,0.0813098847866058
15.3923724293569,-12.3120297400536,-18.9276484499892,-11.5531728826003,0.30673149228096,0.352624982595444,0.0814501866698265
15.3923724293569,-12.3120297400536,-18.9276484499892,-11.5531728826003,0.306834846735001,0.352818995714188,0.0815905332565308
15.3923724293569,-12.3120297400536,-18.9276484499892,-11.5531728826003,0.306937396526337,0.353012263774872,0.0817309245467186
15.3923724293569,-12.3120297400536,-18.9276484499892,-11.5531728826003,0.307039111852646,0.353204786777496,0.08187136054039
15.3923724293569,-12.3120297400536,-18.9276484499892,-11.5531728826003,0.307140022516251,0.353396564722061,0.0820118486881256
15.3923724293569,-12.3120297400536,-18.9276484499892,-11.5531728826003,0.307240128517151,0.353587627410889,0.0821523815393448
15.3923724293569,-12.3120297400536,-18.9276484499892,-11.5531728826003,0.307339400053024,0.353777945041656,0.0822929590940475
15.3923724293569,-12.3120297400536,-18.9276484499892,-11.5531728826003,0.307437866926193,0.353967517614365,0.0824335813522339
15.3923724293569,-12.3120297400536,-18.9276484499892,-11.5531728826003,0.307535529136658,0.354156374931335,0.0825742483139038
15.3923724293569,-12.3120297400536,-18.9276484499892,-11.5531728826003,0.307632386684418,0.354344487190247,0.0827149674296379
15.3923724293569,-12.3120297400536,-18.9276484499892,-11.5531728826003,0.307728439569473,0.35453188419342,0.0828557312488556
15.3923724293569,-12.3120297400536,-18.9276484499892,-11.5531728826003,0.307823687791824,0.354718536138535,0.0829965397715569
15.3923724293569,-12.3120297400536,-18.9276484499892,-11.5531728826003,0.307918131351471,0.354904472827911,0.0831373929977417
15.3923724293569,-12.3120297400536,-18.9276484499892,-11.5531728826003,0.308011770248413,0.355089664459229,0.0832782909274101
15.3923724293569,-12.3120297400536,-18.9276484499892,-11.5531728826003,0.308104604482651,0.355274140834808,0.0834192410111427
15.3923724293569,-12.3120297400536,-18.9276484499892,-11.5531728826003,0.308196634054184,0.355457901954651,0.0835602357983589
15.3923724293569,-12.3120297400536,-18.9276484499892,-11.5531728826003,0.308287858963013,0.355640918016434,0.0837012752890587
15.3923724293569,-12.3120297400536,-18.9276484499892,-11.5531728826003,0.308378279209137,0.355823218822479,0.083842359483242
15.3923724293569,-12.3120297400536,-18.9276484499892,-11.5531728826003,0.308467924594879,0.356004804372787,0.083983488380909
15.3923724293569,-12.3120297400536,-18.9276484499892,-11.5531728826003,0.308556765317917,0.356185674667358,0.0841246694326401
15.3923724293569,-12.3120297400536,-18.9276484499892,-11.5531728826003,0.30864480137825,0.356365829706192,0.0842658951878548
15.3923724293569,-12.3120297400536,-18.9276484499892,-11.5531728826003,0.308732062578201,0.356545269489288,0.084407165646553
15.3923724293569,-12.3120297400536,-18.9276484499892,-11.5531728826003,0.308818519115448,0.356723994016647,0.0845484808087349
15.3923724293569,-12.3120297400536,-18.9276484499892,-11.5531728826003,0.308904200792313,0.356902003288269,0.0846898406744003
15.3923724293569,-12.3120297400536,-18.9276484499892,-11.5531728826003,0.308989077806473,0.357079297304153,0.0848312526941299
15.3923724293569,-12.3120297400536,-18.9276484499892,-11.5531728826003,0.309073179960251,0.357255905866623,0.0849727094173431
15.3923724293569,-12.3120297400536,-18.9276484499892,-11.5531728826003,0.309156477451324,0.357431799173355,0.0851142108440399
15.3923724293569,-12.3120297400536,-18.9276484499892,-11.5531728826003,0.309239000082016,0.35760697722435,0.0852557569742203
15.3923724293569,-12.3120297400536,-18.9276484499892,-11.5531728826003,0.309320747852325,0.357781440019608,0.0853973478078842
15.3923724293569,-12.3120297400536,-18.9276484499892,-11.5531728826003,0.309401720762253,0.35795521736145,0.0855389907956123
15.3923724293569,-12.3120297400536,-18.9276484499892,-11.5531728826003,0.309481889009476,0.358128279447556,0.085680678486824
15.3923724293569,-12.3120297400536,-18.9276484499892,-11.5531728826003,0.309561282396317,0.358300656080246,0.0858224108815193
15.3923724293569,-12.3120297400536,-18.9276484499892,-11.5531728826003,0.309639900922775,0.358472317457199,0.0859641879796982
15.3923724293569,-12.3120297400536,-18.9276484499892,-11.5531728826003,0.309717744588852,0.358643293380737,0.0861060097813606
15.3923724293569,-12.3120297400536,-18.9276484499892,-11.5531728826003,0.309794813394547,0.358813554048538,0.0862478837370873
15.3923724293569,-12.3120297400536,-18.9276484499892,-11.5531728826003,0.309871107339859,0.358983129262924,0.0863898023962975
15.3923724293569,-12.3120297400536,-18.9276484499892,-11.5531728826003,0.309946626424789,0.359152019023895,0.0865317657589912
15.3923724293569,-12.3120297400536,-18.9276484499892,-11.5531728826003,0.310021370649338,0.359320223331451,0.0866737738251686
15.3923724293569,-12.3120297400536,-18.9276484499892,-11.5531728826003,0.310095369815826,0.35948771238327,0.0868158340454102
15.3923724293569,-12.3120297400536,-18.9276484499892,-11.5531728826003,0.310168594121933,0.359654515981674,0.0869579389691353
15.3923724293569,-12.3120297400536,-18.9276484499892,-11.5531728826003,0.310241043567657,0.359820634126663,0.087100088596344
15.3923724293569,-12.3120297400536,-18.9276484499892,-11.5531728826003,0.310312718153,0.359986066818237,0.0872422829270363
15.3923724293569,-12.3120297400536,-18.9276484499892,-11.5531728826003,0.310383647680283,0.360150814056396,0.0873845219612122
15.3923724293569,-12.3120297400536,-18.9276484499892,-11.5531728826003,0.310453802347183,0.360314875841141,0.0875268131494522
15.3923724293569,-12.3120297400536,-18.9276484499892,-11.5531728826003,0.310523211956024,0.36047825217247,0.0876691490411758
15.3923724293569,-12.3120297400536,-18.9276484499892,-11.5531728826003,0.310591846704483,0.360640943050385,0.0878115296363831
15.3923724293569,-12.3120297400536,-18.9276484499892,-11.5531728826003,0.310659736394882,0.360802978277206,0.0879539549350739
15.3923724293569,-12.3120297400536,-18.9276484499892,-11.5531728826003,0.310726851224899,0.360964328050613,0.0880964323878288
15.3923724293569,-12.3120297400536,-18.9276484499892,-11.5531728826003,0.310793220996857,0.361124992370605,0.0882389545440674
15.3923724293569,-12.3120297400536,-18.9276484499892,-11.5531728826003,0.310858815908432,0.361284971237183,0.0883815214037895
15.3923724293569,-12.3120297400536,-18.9276484499892,-11.5531728826003,0.310923665761948,0.361444294452667,0.0885241329669952
15.3923724293569,-12.3120297400536,-18.9276484499892,-11.5531728826003,0.310987770557404,0.361602932214737,0.0886667966842651
15.3923724293569,-12.3120297400536,-18.9276484499892,-11.5531728826003,0.3110511302948,0.361760914325714,0.0888095051050186
15.3923724293569,-12.3120297400536,-18.9276484499892,-11.5531728826003,0.311113744974136,0.361918210983276,0.0889522582292557
15.3923724293569,-12.3120297400536,-18.9276484499892,-11.5531728826003,0.311175584793091,0.362074851989746,0.0890950560569763
15.3923724293569,-12.3120297400536,-18.9276484499892,-11.5531728826003,0.311236679553986,0.362230807542801,0.0892378985881805
15.3923724293569,-12.3120297400536,-18.9276484499892,-11.5531728826003,0.311297029256821,0.362386107444763,0.0893807932734489
15.3923724293569,-12.3120297400536,-18.9276484499892,-11.5531728826003,0.311356633901596,0.362540751695633,0.0895237326622009
15.3923724293569,-12.3120297400536,-18.9276484499892,-11.5531728826003,0.311415493488312,0.362694710493088,0.0896667167544365
15.3923724293569,-12.3120297400536,-18.9276484499892,-11.5531728826003,0.31147363781929,0.36284801363945,0.0898097455501556
15.3923724293569,-12.3120297400536,-18.9276484499892,-11.5531728826003,0.311531037092209,0.36300066113472,0.089952826499939
15.3923724293569,-12.3120297400536,-18.9276484499892,-11.5531728826003,0.311587691307068,0.363152652978897,0.0900959521532059
15.3923724293569,-12.3120297400536,-18.9276484499892,-11.5531728826003,0.311643600463867,0.363303989171982,0.0902391225099564
15.3923724293569,-12.3120297400536,-18.9276484499892,-11.5531728826003,0.311698764562607,0.363454669713974,0.0903823375701904
15.3923724293569,-12.3120297400536,-18.9276484499892,-11.5531728826003,0.311753213405609,0.363604694604874,0.0905256047844887
15.3923724293569,-12.3120297400536,-18.9276484499892,-11.5531728826003,0.311806917190552,0.363754063844681,0.0906689167022705
15.3923724293569,-12.3120297400536,-18.9276484499892,-11.5531728826003,0.311859905719757,0.363902777433395,0.0908122733235359
15.3923724293569,-12.3120297400536,-18.9276484499892,-11.5531728826003,0.311912149190903,0.364050835371017,0.0909556746482849
15.3923724293569,-12.3120297400536,-18.9276484499892,-11.5531728826003,0.311963677406311,0.364198237657547,0.0910991281270981
15.3923724293569,-12.3120297400536,-18.9276484499892,-11.5531728826003,0.31201446056366,0.364345014095306,0.0912426263093948
15.3923724293569,-12.3120297400536,-18.9276484499892,-11.5531728826003,0.312064528465271,0.364491134881973,0.0913861691951752
15.3923724293569,-12.3120297400536,-18.9276484499892,-11.5531728826003,0.312113851308823,0.364636600017548,0.0915297567844391
15.3923724293569,-12.3120297400536,-18.9276484499892,-11.5531728826003,0.312162458896637,0.364781439304352,0.0916733965277672
15.3923724293569,-12.3120297400536,-18.9276484499892,-11.5531728826003,0.312210351228714,0.364925622940063,0.0918170809745789
15.3923724293569,-12.3120297400536,-18.9276484499892,-11.5531728826003,0.312257528305054,0.365069180727005,0.0919608101248741
15.3923724293569,-12.3120297400536,-18.9276484499892,-11.5531728826003,0.312303960323334,0.365212082862854,0.0921045914292336
15.3923724293569,-12.3120297400536,-18.9276484499892,-11.5531728826003,0.312349677085876,0.365354359149933,0.0922484174370766
15.3923724293569,-12.3120297400536,-18.9276484499892,-11.5531728826003,0.312394678592682,0.365495979785919,0.0923922881484032
15.3923724293569,-12.3120297400536,-18.9276484499892,-11.5531728826003,0.31243896484375,0.365636974573135,0.0925362035632133
15.3923724293569,-12.3120297400536,-18.9276484499892,-11.5531728826003,0.312482535839081,0.365777343511581,0.0926801711320877
15.3923724293569,-12.3120297400536,-18.9276484499892,-11.5531728826003,0.312525391578674,0.365917056798935,0.0928241834044456
15.3923724293569,-12.3120297400536,-18.9276484499892,-11.5531728826003,0.312567532062531,0.366056144237518,0.0929682403802872
15.3923724293569,-12.3120297400536,-18.9276484499892,-11.5531728826003,0.312608957290649,0.366194605827332,0.0931123420596123
15.3923724293569,-12.3120297400536,-18.9276484499892,-11.5531728826003,0.312649667263031,0.366332441568375,0.0932564958930016
15.3923724293569,-12.3120297400536,-18.9276484499892,-11.5531728826003,0.312689691781998,0.366469651460648,0.0934006944298744
15.3923724293569,-12.3120297400536,-18.9276484499892,-11.5531728826003,0.312729001045227,0.36660623550415,0.0935449376702309
15.3923724293569,-12.3120297400536,-18.9276484499892,-11.5531728826003,0.312767595052719,0.366742193698883,0.0936892330646515
15.3923724293569,-12.3120297400536,-18.9276484499892,-11.5531728826003,0.312805503606796,0.366877526044846,0.0938335731625557
15.3923724293569,-12.3120297400536,-18.9276484499892,-11.5531728826003,0.312842696905136,0.367012232542038,0.0939779579639435
15.3923724293569,-12.3120297400536,-18.9276484499892,-11.5531728826003,0.312879174947739,0.36714631319046,0.0941223874688149
15.3923724293569,-12.3120297400536,-18.9276484499892,-11.5531728826003,0.312914967536926,0.367279767990112,0.0942668691277504
15.3923724293569,-12.3120297400536,-18.9276484499892,-11.5531728826003,0.312950044870377,0.367412626743317,0.0944113954901695
15.3923724293569,-12.3120297400536,-18.9276484499892,-11.5531728826003,0.312984436750412,0.367544859647751,0.0945559665560722
15.3923724293569,-12.3120297400536,-18.9276484499892,-11.5531728826003,0.313018143177032,0.367676466703415,0.0947005823254585
15.3923724293569,-12.3120297400536,-18.9276484499892,-11.5531728826003,0.313051134347916,0.367807477712631,0.094845250248909
15.3923724293569,-12.3120297400536,-18.9276484499892,-11.5531728826003,0.313083440065384,0.367937862873077,0.094989962875843
15.3923724293569,-12.3120297400536,-18.9276484499892,-11.5531728826003,0.313112854957581,0.368095248937607,0.0951405391097069
15.3923724293569,-12.3120297400536,-18.9276484499892,-11.5531728826003,0.313132882118225,0.368286907672882,0.0952853485941887
15.3923724293569,-12.3120297400536,-18.9276484499892,-11.5531728826003,0.313139140605927,0.368492484092712,0.0954069495201111
15.3923724293569,-12.3120297400536,-18.9276484499892,-11.5531728826003,0.313131630420685,0.368711978197098,0.0955053493380547
15.3923724293569,-12.3120297400536,-18.9276484499892,-11.5531728826003,0.3131103515625,0.368945389986038,0.0955805405974388
15.3923724293569,-12.3120297400536,-18.9276484499892,-11.5531728826003,0.313075304031372,0.369192749261856,0.0956325307488441
15.3923724293569,-12.3120297400536,-18.9276484499892,-11.5531728826003,0.31303083896637,0.369453310966492,0.0956453233957291
15.3923724293569,-12.3120297400536,-18.9276484499892,-11.5531728826003,0.312981337308884,0.369726330041885,0.0956029444932938
15.3923724293569,-12.3120297400536,-18.9276484499892,-11.5531728826003,0.312926799058914,0.37001183629036,0.0955053865909576
15.3923724293569,-12.3120297400536,-18.9276484499892,-11.5531728826003,0.312867194414139,0.370309829711914,0.0953526571393013
15.3923724293569,-12.3120297400536,-18.9276484499892,-11.5531728826003,0.31280255317688,0.370620310306549,0.0951447486877441
15.3923724293569,-12.3120297400536,-18.9276484499892,-11.5531728826003,0.312727063894272,0.370936721563339,0.0949252620339394
15.3923724293569,-12.3120297400536,-18.9276484499892,-11.5531728826003,0.312634915113449,0.371252536773682,0.0947377905249596
15.3923724293569,-12.3120297400536,-18.9276484499892,-11.5531728826003,0.312526106834412,0.371567755937576,0.0945823416113853
15.3923724293569,-12.3120297400536,-18.9276484499892,-11.5531728826003,0.312400639057159,0.371882379055023,0.0944589078426361
15.3923724293569,-12.3120297400536,-18.9276484499892,-11.5531728826003,0.312258511781693,0.372196406126022,0.0943674892187119
15.3923724293569,-12.3120297400536,-18.9276484499892,-11.5531728826003,0.31214115023613,0.372514933347702,0.0942768454551697
15.3923724293569,-12.3120297400536,-18.9276484499892,-11.5531728826003,0.312089949846268,0.372843056917191,0.0941557362675667
15.3923724293569,-12.3120297400536,-18.9276484499892,-11.5531728826003,0.312104940414429,0.373180747032166,0.0940041542053223
15.3923724293569,-12.3120297400536,-18.9276484499892,-11.5531728826003,0.31218609213829,0.373528033494949,0.0938220992684364
15.3923724293569,-12.3120297400536,-18.9276484499892,-11.5531728826003,0.312333434820175,0.373884916305542,0.0936095714569092
15.3923724293569,-12.3120297400536,-18.9276484499892,-11.5531728826003,0.312513530254364,0.374225944280624,0.0933418720960617
15.3923724293569,-12.3120297400536,-18.9276484499892,-11.5531728826003,0.312697321176529,0.374546051025391,0.0930117294192314
15.3923724293569,-12.3120297400536,-18.9276484499892,-11.5531728826003,0.312889158725739,0.374865561723709,0.0926365852355957
15.3923724293569,-12.3120297400536,-18.9276484499892,-11.5531728826003,0.313089072704315,0.375184506177902,0.092216432094574
15.3923724293569,-12.3120297400536,-18.9276484499892,-11.5531728826003,0.313297033309937,0.375502854585648,0.0917512774467468
15.3923724293569,-12.3120297400536,-18.9276484499892,-11.5531728826003,0.313515245914459,0.375812649726868,0.091260738670826
15.3923724293569,-12.3120297400536,-18.9276484499892,-11.5531728826003,0.313741505146027,0.376106590032578,0.0907804220914841
15.3923724293569,-12.3120297400536,-18.9276484499892,-11.5531728826003,0.31397145986557,0.376385420560837,0.0903263092041016
15.3923724293569,-12.3120297400536,-18.9276484499892,-11.5531728826003,0.314205139875412,0.376649171113968,0.0898984000086784
15.3923724293569,-12.3120297400536,-18.9276484499892,-11.5531728826003,0.31444251537323,0.376897811889648,0.0894966945052147
15.3923724293569,-12.3120297400536,-18.9276484499892,-11.5531728826003,0.314677059650421,0.377084106206894,0.0891364589333534
15.3923724293569,-12.3120297400536,-18.9276484499892,-11.5531728826003,0.314908027648926,0.377167373895645,0.0887893438339233
15.3923724293569,-12.3120297400536,-18.9276484499892,-11.5531728826003,0.315141260623932,0.377154171466827,0.0884117633104324
15.3923724293569,-12.3120297400536,-18.9276484499892,-11.5531728826003,0.315376758575439,0.377044498920441,0.0880037099123001
15.3923724293569,-12.3120297400536,-18.9276484499892,-11.5531728826003,0.315614491701126,0.376838326454163,0.0875651836395264
15.3923724293569,-12.3120297400536,-18.9276484499892,-11.5531728826003,0.315842151641846,0.37663522362709,0.0870896503329277
15.3923724293569,-12.3120297400536,-18.9276484499892,-11.5531728826003,0.316005945205688,0.376529663801193,0.0866018086671829
15.3923724293569,-12.3120297400536,-18.9276484499892,-11.5531728826003,0.316064447164536,0.376516550779343,0.0861329063773155
15.3923724293569,-12.3120297400536,-18.9276484499892,-11.5531728826003,0.316017687320709,0.376595884561539,0.0856829434633255
15.3923724293569,-12.3120297400536,-18.9276484499892,-11.5531728826003,0.315865635871887,0.376767665147781,0.0852519199252129
15.3923724293569,-12.3120297400536,-18.9276484499892,-11.5531728826003,0.315590143203735,0.37701153755188,0.0848376527428627
15.3923724293569,-12.3120297400536,-18.9276484499892,-11.5531728826003,0.315208673477173,0.377305001020432,0.0844568610191345
15.3923724293569,-12.3120297400536,-18.9276484499892,-11.5531728826003,0.314756810665131,0.37764585018158,0.0841284319758415
15.3923724293569,-12.3120297400536,-18.9276484499892,-11.5531728826003,0.314234524965286,0.378034114837646,0.0838523656129837
15.3923724293569,-12.3120297400536,-18.9276484499892,-11.5531728826003,0.313641875982285,0.378469794988632,0.0836286619305611
15.3923724293569,-12.3120297400536,-18.9276484499892,-11.5531728826003,0.3130042552948,0.378913640975952,0.0834783986210823
15.3923724293569,-12.3120297400536,-18.9276484499892,-11.5531728826003,0.312344938516617,0.379334390163422,0.0834030210971832
15.3923724293569,-12.3120297400536,-18.9276484499892,-11.5531728826003,0.311661720275879,0.379740059375763,0.0833829119801521
15.3923724293569,-12.3120297400536,-18.9276484499892,-11.5531728826003,0.310954630374908,0.380130648612976,0.0834180787205696
15.3923724293569,-12.3120297400536,-18.9276484499892,-11.5531728826003,0.310223639011383,0.380506157875061,0.0835085138678551
15.3923724293569,-12.3120297400536,-18.9276484499892,-11.5531728826003,0.309494197368622,0.380881130695343,0.0836229771375656
15.3923724293569,-12.3120297400536,-18.9276484499892,-11.5531728826003,0.308798283338547,0.381317317485809,0.0837149620056152
15.3923724293569,-12.3120297400536,-18.9276484499892,-11.5531728826003,0.308142453432083,0.381861954927444,0.0837692096829414
15.3923724293569,-12.3120297400536,-18.9276484499892,-11.5531728826003,0.307526677846909,0.382515043020248,0.0837857201695442
15.3923724293569,-12.3120297400536,-18.9276484499892,-11.5531728826003,0.306950956583023,0.383276581764221,0.0837644934654236
15.3923724293569,-12.3120297400536,-18.9276484499892,-11.5531728826003,0.306420385837555,0.384114623069763,0.0837382227182388
15.3923724293569,-12.3120297400536,-18.9276484499892,-11.5531728826003,0.305952429771423,0.384897619485855,0.083746150135994
15.3923724293569,-12.3120297400536,-18.9276484499892,-11.5531728826003,0.305559426546097,0.385526031255722,0.0837948173284531
15.3923724293569,-12.3120297400536,-18.9276484499892,-11.5531728826003,0.305241346359253,0.385999858379364,0.0838842242956162
15.3923724293569,-12.3120297400536,-18.9276484499892,-11.5531728826003,0.304998219013214,0.386319130659103,0.0840143710374832
15.3923724293569,-12.3120297400536,-18.9276484499892,-11.5531728826003,0.304819881916046,0.386504173278809,0.0841649100184441
15.3923724293569,-12.3120297400536,-18.9276484499892,-11.5531728826003,0.304714322090149,0.386595666408539,0.0843176767230034
15.3923724293569,-12.3120297400536,-18.9276484499892,-11.5531728826003,0.304699689149857,0.386613965034485,0.0844748467206955
15.3923724293569,-12.3120297400536,-18.9276484499892,-11.5531728826003,0.304776012897491,0.386559069156647,0.084636427462101
15.3923724293569,-12.3120297400536,-18.9276484499892,-11.5531728826003,0.304943263530731,0.386430978775024,0.0848024114966393
15.3923724293569,-12.3120297400536,-18.9276484499892,-11.5531728826003,0.30519637465477,0.38620862364769,0.0849742591381073
15.3923724293569,-12.3120297400536,-18.9276484499892,-11.5531728826003,0.305504828691483,0.385910183191299,0.0851323455572128
15.3923724293569,-12.3120297400536,-18.9276484499892,-11.5531728826003,0.305843204259872,0.385574907064438,0.0852556005120277
15.3923724293569,-12.3120297400536,-18.9276484499892,-11.5531728826003,0.306211471557617,0.385202765464783,0.085344024002552
15.3923724293569,-12.3120297400536,-18.9276484499892,-11.5531728826003,0.306609660387039,0.384793758392334,0.0853976234793663
15.3923724293569,-12.3120297400536,-18.9276484499892,-11.5531728826003,0.307027578353882,0.384366810321808,0.0853953212499619
15.3923724293569,-12.3120297400536,-18.9276484499892,-11.5531728826003,0.307429641485214,0.383926272392273,0.0853472873568535
15.3923724293569,-12.3120297400536,-18.9276484499892,-11.5531728826003,0.30779042840004,0.383457601070404,0.0852847695350647
15.3923724293569,-12.3120297400536,-18.9276484499892,-11.5531728826003,0.308109909296036,0.382960796356201,0.0852077603340149
15.3923724293569,-12.3120297400536,-18.9276484499892,-11.5531728826003,0.308388113975525,0.382435858249664,0.0851162672042847
15.3923724293569,-12.3120297400536,-18.9276484499892,-11.5531728826003,0.30865553021431,0.381877720355988,0.0850255489349365
15.3923724293569,-12.3120297400536,-18.9276484499892,-11.5531728826003,0.308937609195709,0.381313264369965,0.0849181637167931
15.3923724293569,-12.3120297400536,-18.9276484499892,-11.5531728826003,0.309229254722595,0.380774438381195,0.084761418402195
15.3923724293569,-12.3120297400536,-18.9276484499892,-11.5531728826003,0.30953049659729,0.380261272192001,0.0845553129911423
15.3923724293569,-12.3120297400536,-18.9276484499892,-11.5531728826003,0.309841305017471,0.379773736000061,0.0842998400330544
15.3923724293569,-12.3120297400536,-18.9276484499892,-11.5531728826003,0.310160964727402,0.379308968782425,0.0839928239583969
15.3923724293569,-12.3120297400536,-18.9276484499892,-11.5531728826003,0.310498923063278,0.378843694925308,0.0836524367332459
15.3923724293569,-12.3120297400536,-18.9276484499892,-11.5531728826003,0.310865372419357,0.37835755944252,0.0832990184426308
15.3923724293569,-12.3120297400536,-18.9276484499892,-11.5531728826003,0.311260282993317,0.377850562334061,0.0829325690865517
15.3923724293569,-12.3120297400536,-18.9276484499892,-11.5531728826003,0.311683684587479,0.377322733402252,0.0825530812144279
15.3923724293569,-12.3120297400536,-18.9276484499892,-11.5531728826003,0.312115222215652,0.376768976449966,0.0821445807814598
15.3923724293569,-12.3120297400536,-18.9276484499892,-11.5531728826003,0.312539637088776,0.376205265522003,0.0816896259784698
15.3923724293569,-12.3120297400536,-18.9276484499892,-11.5531728826003,0.312961995601654,0.375652670860291,0.0811867564916611
15.3923724293569,-12.3120297400536,-18.9276484499892,-11.5531728826003,0.31338232755661,0.375111222267151,0.0806359797716141
15.3923724293569,-12.3120297400536,-18.9276484499892,-11.5531728826003,0.313800632953644,0.374580889940262,0.0800372958183289
15.3923724293569,-12.3120297400536,-18.9276484499892,-11.5531728826003,0.314211070537567,0.374073326587677,0.0793718099594116
15.3923724293569,-12.3120297400536,-18.9276484499892,-11.5531728826003,0.314618021249771,0.373581260442734,0.0786416977643967
15.3923724293569,-12.3120297400536,-18.9276484499892,-11.5531728826003,0.315031677484512,0.373085796833038,0.0778680369257927
15.3923724293569,-12.3120297400536,-18.9276484499892,-11.5531728826003,0.315452009439468,0.372586935758591,0.0770508274435997
15.3923724293569,-12.3120297400536,-18.9276484499892,-11.5531728826003,0.315879046916962,0.372084677219391,0.0761900693178177
15.3923724293569,-12.3120297400536,-18.9276484499892,-11.5531728826003,0.316301137208939,0.371599346399307,0.075250156223774
15.3923724293569,-12.3120297400536,-18.9276484499892,-11.5531728826003,0.316676139831543,0.371156424283981,0.0741802230477333
15.3923724293569,-12.3120297400536,-18.9276484499892,-11.5531728826003,0.316973567008972,0.370760947465897,0.0729650184512138
15.3923724293569,-12.3120297400536,-18.9276484499892,-11.5531728826003,0.317193388938904,0.370412945747375,0.0716045349836349
15.3923724293569,-12.3120297400536,-18.9276484499892,-11.5531728826003,0.31733563542366,0.370112419128418,0.0700987726449966
15.3923724293569,-12.3120297400536,-18.9276484499892,-11.5531728826003,0.317401736974716,0.36980414390564,0.0684615448117256
15.3923724293569,-12.3120297400536,-18.9276484499892,-11.5531728826003,0.317393869161606,0.36943581700325,0.0667088329792023
15.3923724293569,-12.3120297400536,-18.9276484499892,-11.5531728826003,0.317312777042389,0.369010329246521,0.0648428127169609
15.3923724293569,-12.3120297400536,-18.9276484499892,-11.5531728826003,0.317158460617065,0.368527680635452,0.0628634840250015
15.3923724293569,-12.3120297400536,-18.9276484499892,-11.5531728826003,0.316930919885635,0.367987871170044,0.0607708543539047
15.3923724293569,-12.3120297400536,-18.9276484499892,-11.5531728826003,0.316623628139496,0.367432326078415,0.0586223229765892
15.3923724293569,-12.3120297400536,-18.9276484499892,-11.5531728826003,0.316250383853912,0.366907566785812,0.0564912781119347
15.3923724293569,-12.3120297400536,-18.9276484499892,-11.5531728826003,0.315831512212753,0.366418659687042,0.0543937049806118
15.3923724293569,-12.3120297400536,-18.9276484499892,-11.5531728826003,0.315367043018341,0.365965604782104,0.0523296035826206
15.3923724293569,-12.3120297400536,-18.9276484499892,-11.5531728826003,0.314856946468353,0.365548431873322,0.0502989739179611
15.3923724293569,-12.3120297400536,-18.9276484499892,-11.5531728826003,0.314278721809387,0.365153312683105,0.0482349656522274
15.3923724293569,-12.3120297400536,-18.9276484499892,-11.5531728826003,0.313615649938583,0.364754796028137,0.0460896231234074
15.3923724293569,-12.3120297400536,-18.9276484499892,-11.5531728826003,0.312873542308807,0.364341288805008,0.0438818410038948
15.3923724293569,-12.3120297400536,-18.9276484499892,-11.5531728826003,0.312052428722382,0.363912791013718,0.0416116155683994
15.3923724293569,-12.3120297400536,-18.9276484499892,-11.5531728826003,0.311152279376984,0.363469272851944,0.0392789505422115
15.3923724293569,-12.3120297400536,-18.9276484499892,-11.5531728826003,0.310213804244995,0.363004237413406,0.0369492396712303
15.3923724293569,-12.3120297400536,-18.9276484499892,-11.5531728826003,0.309289306402206,0.362490773200989,0.0347234830260277
15.3923724293569,-12.3120297400536,-18.9276484499892,-11.5531728826003,0.308390408754349,0.361908555030823,0.032637283205986
15.3923724293569,-12.3120297400536,-18.9276484499892,-11.5531728826003,0.307517141103745,0.361257582902908,0.0306906439363956
15.3923724293569,-12.3120297400536,-18.9276484499892,-11.5531728826003,0.306669473648071,0.360537827014923,0.0288835633546114
15.3923724293569,-12.3120297400536,-18.9276484499892,-11.5531728826003,0.305828511714935,0.359775483608246,0.0271898824721575
15.3923724293569,-12.3120297400536,-18.9276484499892,-11.5531728826003,0.304973930120468,0.359051913022995,0.0255696382373571
15.3923724293569,-12.3120297400536,-18.9276484499892,-11.5531728826003,0.304104298353195,0.358422338962555,0.0240090247243643
15.3923724293569,-12.3120297400536,-18.9276484499892,-11.5531728826003,0.303219586610794,0.357886791229248,0.0225080419331789
15.3923724293569,-12.3120297400536,-18.9276484499892,-11.5531728826003,0.302319794893265,0.357445240020752,0.021066689863801
15.3923724293569,-12.3120297400536,-18.9276484499892,-11.5531728826003,0.301421642303467,0.357099890708923,0.019733652472496
15.3923724293569,-12.3120297400536,-18.9276484499892,-11.5531728826003,0.300548374652863,0.356811493635178,0.0185002088546753
15.3923724293569,-12.3120297400536,-18.9276484499892,-11.5531728826003,0.299706548452377,0.356538623571396,0.0173089560121298
15.3923724293569,-12.3120297400536,-18.9276484499892,-11.5531728826003,0.298896163702011,0.356281280517578,0.0161598958075047
15.3923724293569,-12.3120297400536,-18.9276484499892,-11.5531728826003,0.298117220401764,0.356039494276047,0.0150530273094773
15.3923724293569,-12.3120297400536,-18.9276484499892,-11.5531728826003,0.297377705574036,0.355835765600204,0.0139454798772931
15.3923724293569,-12.3120297400536,-18.9276484499892,-11.5531728826003,0.296708136796951,0.355706423521042,0.012861231341958
15.3923724293569,-12.3120297400536,-18.9276484499892,-11.5531728826003,0.296131044626236,0.355665296316147,0.011867132037878
15.3923724293569,-12.3120297400536,-18.9276484499892,-11.5531728826003,0.29564642906189,0.355712383985519,0.0109631810337305
15.3923724293569,-12.3120297400536,-18.9276484499892,-11.5531728826003,0.295254290103912,0.355847656726837,0.010149379260838
15.3923724293569,-12.3120297400536,-18.9276484499892,-11.5531728826003,0.294912487268448,0.356069684028625,0.00943735148757696
15.3923724293569,-12.3120297400536,-18.9276484499892,-11.5531728826003,0.294538199901581,0.356383562088013,0.00877332873642445
15.3923724293569,-12.3120297400536,-18.9276484499892,-11.5531728826003,0.29409071803093,0.356795817613602,0.00809191539883614
15.3923724293569,-12.3120297400536,-18.9276484499892,-11.5531728826003,0.293570041656494,0.357306450605392,0.00739311054348946
15.3923724293569,-12.3120297400536,-18.9276484499892,-11.5531728826003,0.292976170778275,0.357915490865707,0.00667691463604569
15.3923724293569,-12.3120297400536,-18.9276484499892,-11.5531728826003,0.29231858253479,0.358582228422165,0.00597675237804651
15.3923724293569,-12.3120297400536,-18.9276484499892,-11.5531728826003,0.291625589132309,0.359239786863327,0.00535220606252551
15.3923724293569,-12.3120297400536,-18.9276484499892,-11.5531728826003,0.290916085243225,0.359862059354782,0.00482943467795849
15.3923724293569,-12.3120297400536,-18.9276484499892,-11.5531728826003,0.290190070867538,0.360449016094208,0.00440843775868416
15.3923724293569,-12.3120297400536,-18.9276484499892,-11.5531728826003,0.289447575807571,0.361000657081604,0.00408921530470252
15.3923724293569,-12.3120297400536,-18.9276484499892,-11.5531728826003,0.288719087839127,0.361538082361221,0.00386304827407002
15.3923724293569,-12.3120297400536,-18.9276484499892,-11.5531728826003,0.288018405437469,0.362080156803131,0.00367253343574703
15.3923724293569,-12.3120297400536,-18.9276484499892,-11.5531728826003,0.287328839302063,0.362624704837799,0.00346898729912937
15.3923724293569,-12.3120297400536,-18.9276484499892,-11.5531728826003,0.286650389432907,0.363171726465225,0.00325240986421704
15.3923724293569,-12.3120297400536,-18.9276484499892,-11.5531728826003,0.285983055830002,0.363721251487732,0.00302280113101006
15.3923724293569,-12.3120297400536,-18.9276484499892,-11.5531728826003,0.285313755273819,0.364249289035797,0.0027736215852201
15.3923724293569,-12.3120297400536,-18.9276484499892,-11.5531728826003,0.28462141752243,0.364709317684174,0.00254120212048292
15.3923724293569,-12.3120297400536,-18.9276484499892,-11.5531728826003,0.283898055553436,0.365078836679459,0.00236841337755322
15.3923724293569,-12.3120297400536,-18.9276484499892,-11.5531728826003,0.283143669366837,0.36535781621933,0.00225525535643101
15.3923724293569,-12.3120297400536,-18.9276484499892,-11.5531728826003,0.282358258962631,0.36554628610611,0.00220172805711627
15.3923724293569,-12.3120297400536,-18.9276484499892,-11.5531728826003,0.281536012887955,0.365636259317398,0.00221291789785028
15.3923724293569,-12.3120297400536,-18.9276484499892,-11.5531728826003,0.280713260173798,0.36562117934227,0.00228228513151407
15.3923724293569,-12.3120297400536,-18.9276484499892,-11.5531728826003,0.279932171106339,0.365502506494522,0.00239820405840874
15.3923724293569,-12.3120297400536,-18.9276484499892,-11.5531728826003,0.279192715883255,0.365280240774155,0.00256067467853427
15.3923724293569,-12.3120297400536,-18.9276484499892,-11.5531728826003,0.278494894504547,0.364954382181168,0.00276969675906003
15.3923724293569,-12.3120297400536,-18.9276484499892,-11.5531728826003,0.277845978736877,0.364539444446564,0.00304052955470979
15.3923724293569,-12.3120297400536,-18.9276484499892,-11.5531728826003,0.277243793010712,0.36409068107605,0.00335500738583505
15.4956054274422,-12.3795322937216,-18.9851131873971,-11.8591547880321,0.276678919792175,0.363648772239685,0.00367970578372478
15.4896496775527,-12.4758258242125,-19.0810226434934,-12.1602712568051,0.276151329278946,0.363213717937469,0.00401462474837899
15.3586231799828,-12.5786420733725,-19.1825976370807,-12.4121927549167,0.275661021471024,0.362785547971725,0.00435976451262832
15.1184079344381,-12.6709916344356,-19.2487630213497,-12.5716709565111,0.275189101696014,0.362366408109665,0.00473038386553526
14.8032495027834,-12.7439854070762,-19.247953658851,-12.6208659271723,0.274686187505722,0.361937403678894,0.00515046156942844
14.4647643840613,-12.7946199068838,-19.1595308058677,-12.5413971284118,0.274121731519699,0.361477494239807,0.00562871666625142
14.1605248272041,-12.8252311772887,-18.9909810655127,-12.3505638905718,0.273495763540268,0.360986679792404,0.00616514962166548
13.9461178311807,-12.8399148788507,-18.76800169712,-12.0732340010197,0.272808253765106,0.360464930534363,0.00675975997000933
13.863233645218,-12.8407946874154,-18.531465506874,-11.7461685367331,0.272059947252274,0.359926074743271,0.00739220250397921
13.9347026438924,-12.8277492500773,-18.3305412665709,-11.412615823568,0.271264672279358,0.359407901763916,0.00804867129772902
14.1580432647501,-12.7971379796723,-18.2107556167628,-11.1266362688447,0.270435482263565,0.358934372663498,0.0087357060983777
14.5143956331408,-12.7441674364344,-18.1998292230303,-10.9201255128819,0.269572377204895,0.358505487442017,0.00945330690592527
14.9551211249666,-12.6635587689755,-18.3012018759929,-10.8211949674861,0.268675357103348,0.358121275901794,0.0102014737203717
15.4315811161297,-12.5530669485445,-18.4966629194297,-10.8314664448769,0.267769157886505,0.357762813568115,0.0109802065417171
15.8802476078082,-12.4135111072534,-18.7425067784108,-10.9493181328348,0.26688426733017,0.357419222593308,0.0117844194173813
16.248511475978,-12.2507768610173,-18.9838991436491,-11.1417731828943,0.266026496887207,0.357098489999771,0.0126090254634619
16.4852525340871,-12.0754219126123,-19.1664103871066,-11.3780171628832,0.26519587635994,0.356800615787506,0.0134540256112814
16.5621809701603,-11.8997029054908,-19.2477513182263,-11.6137205387988,0.264392375946045,0.356525629758835,0.0143194189295173
16.4693705343817,-11.7390013204214,-19.2056644682937,-11.8148252540296,0.263630539178848,0.356245875358582,0.0151972128078341
16.2207179764935,-11.6077278149286,-19.0470294185479,-11.9499762723299,0.262917637825012,0.355919241905212,0.0160641558468342
15.8554319832685,-11.5185030911813,-18.804827690811,-12.0061990959428,0.262246400117874,0.355531185865402,0.0169049873948097
15.4281069286941,-11.4818241755028,-18.5235742225116,-11.9824125167219,0.261616855859756,0.355081707239151,0.0177197083830833
15.000285561629,-11.5045171688258,-18.2631618385538,-11.9024031138882,0.261028975248337,0.354570806026459,0.0185083206743002
14.6320216934592,-11.5884327029587,-18.0705335638625,-11.794282299248,0.260428994894028,0.354034096002579,0.0192621033638716
14.3838654480618,-11.7295357937947,-17.9748264483908,-11.692108129413,0.259782046079636,0.353504985570908,0.0199570767581463
14.2826176999396,-11.9186339587442,-17.9875739077454,-11.6239920161896,0.259107023477554,0.352981328964233,0.020577983930707
14.3411825738534,-12.1379186589296,-18.0913746482041,-11.6191265795308,0.258403897285461,0.352463096380234,0.0211248230189085
14.5342481327726,-12.3639384453686,-18.2504143791993,-11.6823772560954,0.257672697305679,0.351950317621231,0.021597595885396
14.8206204399612,-12.5677506501065,-18.4211898664256,-11.8121222336636,0.256889462471008,0.351441502571106,0.0219926685094833
15.133297309162,-12.7181675764373,-18.5599955349532,-11.9861967452343,0.256029456853867,0.350921422243118,0.0223267525434494
15.4037876166452,-12.7860038505954,-18.6364802910807,-12.1737863586351,0.255091965198517,0.35037624835968,0.0226201936602592
15.5660818011351,-12.7480810676358,-18.6407294441989,-12.340292413181,0.254076987504959,0.349806010723114,0.0228729918599129
15.5824601133313,-12.5926583339543,-18.576992147426,-12.4662531622369,0.252984523773193,0.34921070933342,0.0230851490050554
15.4286032411849,-12.3228604868668,-18.473393747592,-12.5273414225086,0.251861095428467,0.348616480827332,0.0232588425278664
15.1263489342908,-11.9571331680048,-18.3625110852697,-12.5343692754602,0.250728487968445,0.348068386316299,0.0233962535858154
14.7208616293115,-11.5287574116936,-18.2757069572837,-12.4965269903361,0.249561995267868,0.347585320472717,0.0234973821789026
14.2731877626145,-11.0821483813354,-18.2382739417187,-12.4430071870892,0.248361617326736,0.347167283296585,0.0235622264444828
13.8587668328008,-10.6655135186284,-18.2556752354408,-12.4116521508435,0.24712735414505,0.346814274787903,0.0235907882452011
13.5470825885817,-10.3253006481416,-18.3198172134631,-12.4305732934056,0.245847582817078,0.346485614776611,0.0235685352236032
13.3887589040181,-10.0985527442698,-18.406014319575,-12.5192323614106,0.244496151804924,0.346168220043182,0.0234889276325703
13.4165524035026,-10.007962800336,-18.4849271631985,-12.6803323752245,0.243058532476425,0.345889687538147,0.0233599580824375
13.6250036496365,-10.0588703441809,-18.5282280568791,-12.8965740045049,0.241534724831581,0.345650047063828,0.023181626573205
13.9808597055364,-10.2382299384664,-18.5195274100181,-13.1376834211525,0.239924713969231,0.345449268817902,0.0229539331048727
14.43895613454,-10.5183427825189,-18.4533620257491,-13.3641965278238,0.23825104534626,0.345305532217026,0.0227008555084467
14.934772312844,-10.8608310199834,-18.3440980884242,-13.5323243945893,0.236590012907982,0.345201402902603,0.0224550925195217
15.4027949916636,-11.2212794874574,-18.2170281761278,-13.6117931933498,0.234995380043983,0.34510126709938,0.0222253631800413
15.7933929219191,-11.5571843298,-18.1063478544301,-13.5917908426414,0.233467146754265,0.34500515460968,0.0220116674900055
