EOG_left_h,EOG_right_h,EOG_left_v,EOG_right_v,head_horizontal,head_frontal,head_sagittal
27.6206905012753,3.53654444072869,-41.9819984639305,43.6792155556848,0.0,0.0,0.0
27.6206905012753,3.53654444072869,-41.9819984639305,43.6792155556848,-0.000322543433867395,0.000638310622889549,0.0011294191936031
27.6206905012753,3.53654444072869,-41.9819984639305,43.6792155556848,-0.000644834246486425,0.0012747785076499,0.00225625513121486
27.6206905012753,3.53654444072869,-41.9819984639305,43.6792155556848,-0.000966873019933701,0.00190940522588789,0.00338051002472639
27.6206905012753,3.53654444072869,-41.9819984639305,43.6792155556848,-0.00128866021987051,0.00254219234921038,0.00450218701735139
27.6206905012753,3.53654444072869,-41.9819984639305,43.6792155556848,-0.00161019631195813,0.00317314127460122,0.00562128843739629
27.6206905012753,3.53654444072869,-41.9819984639305,43.6792155556848,-0.00193148176185787,0.00380225363187492,0.00673781661316752
27.6206905012753,3.53654444072869,-41.9819984639305,43.6792155556848,-0.00225251726806164,0.00442953081801534,0.00785177480429411
27.6206905012753,3.53654444072869,-41.9819984639305,43.6792155556848,-0.00257330294698477,0.00505497446283698,0.00896316487342119
27.6206905012753,3.53654444072869,-41.9819984639305,43.6792155556848,-0.00289383949711919,0.00567858619615436,0.0100719900801778
27.6206905012753,3.53654444072869,-41.9819984639305,43.6792155556848,-0.00321412738412619,0.00630036741495132,0.011178252287209
27.6206905012753,3.53654444072869,-41.9819984639305,43.6792155556848,-0.00353416730649769,0.00692031998187304,0.0122819542884827
27.6206905012753,3.53654444072869,-41.9819984639305,43.6792155556848,-0.00385395949706435,0.00753844529390335,0.0133830988779664
27.6206905012753,3.53654444072869,-41.9819984639305,43.6792155556848,-0.00417350465431809,0.00815474428236485,0.014481688849628
27.6206905012753,3.53654444072869,-41.9819984639305,43.6792155556848,-0.00449280301108956,0.00876921880990267,0.0155777260661125
27.6206905012753,3.53654444072869,-41.9819984639305,43.6792155556848,-0.00481185503304005,0.00938187073916197,0.0166712142527103
27.6206905012753,3.53654444072869,-41.9819984639305,43.6792155556848,-0.00513066165149212,0.0099927019327879,0.017762154340744
27.6206905012753,3.53654444072869,-41.9819984639305,43.6792155556848,-0.00544922286644578,0.010601713322103,0.0188505500555038
27.6206905012753,3.53654444072869,-41.9819984639305,43.6792155556848,-0.0057675396092236,0.0112089058384299,0.019936403259635
27.6206905012753,3.53654444072869,-41.9819984639305,43.6792155556848,-0.00608561187982559,0.0118142822757363,0.0210197176784277
27.6206905012753,3.53654444072869,-41.9819984639305,43.6792155556848,-0.00640344060957432,0.0124178435653448,0.0221004951745272
27.6206905012753,3.53654444072869,-41.9819984639305,43.6792155556848,-0.00672102579846978,0.0130195906385779,0.0231787394732237
27.6206905012753,3.53654444072869,-41.9819984639305,43.6792155556848,-0.00703836837783456,0.0136195253580809,0.0242544505745173
27.6206905012753,3.53654444072869,-41.9819984639305,43.6792155556848,-0.00735546881332994,0.0142176495864987,0.0253276340663433
27.6206905012753,3.53654444072869,-41.9819984639305,43.6792155556848,-0.0076723275706172,0.0148139651864767,0.0263982899487019
27.6206905012753,3.53654444072869,-41.9819984639305,43.6792155556848,-0.00798894464969635,0.0154084730893373,0.0274664219468832
27.6206905012753,3.53654444072869,-41.9819984639305,43.6792155556848,-0.00830532144755125,0.0160011742264032,0.0285320319235325
27.6206905012753,3.53654444072869,-41.9819984639305,43.6792155556848,-0.0086214579641819,0.0165920723229647,0.02959512360394
27.6206905012753,3.53654444072869,-41.9819984639305,43.6792155556848,-0.0089373541995883,0.0171811673790216,0.0306556988507509
27.6206905012753,3.53654444072869,-41.9819984639305,43.6792155556848,-0.00925301108509302,0.0177684593945742,0.0317137613892555
27.6206905012753,3.53654444072869,-41.9819984639305,43.6792155556848,-0.00956842862069607,0.0183539520949125,0.0327693112194538
27.6206905012753,3.53654444072869,-41.9819984639305,43.6792155556848,-0.00988360773772001,0.0189376473426819,0.0338223539292812
27.6206905012753,3.53654444072869,-41.9819984639305,43.6792155556848,-0.0101985493674874,0.0195195451378822,0.0348728895187378
27.6206905012753,3.53654444072869,-41.9819984639305,43.6792155556848,-0.0105132535099983,0.0200996473431587,0.0359209217131138
27.6206905012753,3.53654444072869,-41.9819984639305,43.6792155556848,-0.0108277210965753,0.0206779558211565,0.0369664505124092
27.6206905012753,3.53654444072869,-41.9819984639305,43.6792155556848,-0.0111419521272182,0.0212544705718756,0.0380094833672047
27.6206905012753,3.53654444072869,-41.9819984639305,43.6792155556848,-0.0114559466019273,0.0218291953206062,0.0390500202775002
27.6206905012753,3.53654444072869,-41.9819984639305,43.6792155556848,-0.0117697054520249,0.0224021300673485,0.040088064968586
27.6206905012753,3.53654444072869,-41.9819984639305,43.6792155556848,-0.0120832296088338,0.0229732766747475,0.0411236174404621
27.6206905012753,3.53654444072869,-41.9819984639305,43.6792155556848,-0.0123965190723538,0.0235426370054483,0.0421566814184189
27.6206905012753,3.53654444072869,-41.9819984639305,43.6792155556848,-0.0127095747739077,0.0241102129220963,0.0431872606277466
27.6206905012753,3.53654444072869,-41.9819984639305,43.6792155556848,-0.0130223967134953,0.0246760062873363,0.0442153550684452
27.6206905012753,3.53654444072869,-41.9819984639305,43.6792155556848,-0.0133349858224392,0.0252400171011686,0.0452409684658051
27.6206905012753,3.53654444072869,-41.9819984639305,43.6792155556848,-0.0136473421007395,0.0258022472262383,0.0462641045451164
27.6206905012753,3.53654444072869,-41.9819984639305,43.6792155556848,-0.0139594664797187,0.0263626985251904,0.0472847633063793
27.6206905012753,3.53654444072869,-41.9819984639305,43.6792155556848,-0.0142713589593768,0.0269213728606701,0.048302948474884
27.6206905012753,3.53654444072869,-41.9819984639305,43.6792155556848,-0.0145830204710364,0.0274782702326775,0.0493186637759209
27.6206905012753,3.53654444072869,-41.9819984639305,43.6792155556848,-0.0148944510146976,0.0280333943665028,0.0503319129347801
27.6206905012753,3.53654444072869,-41.9819984639305,43.6792155556848,-0.0152056515216827,0.028586745262146,0.0513426959514618
27.6206905012753,3.53654444072869,-41.9819984639305,43.6792155556848,-0.015516621991992,0.0291383247822523,0.0523510165512562
27.6206905012753,3.53654444072869,-41.9819984639305,43.6792155556848,-0.0158273633569479,0.0296881347894669,0.0533568747341633
27.6206905012753,3.53654444072869,-41.9819984639305,43.6792155556848,-0.0161378756165504,0.0302361771464348,0.0543602779507637
27.6206905012753,3.53654444072869,-41.9819984639305,43.6792155556848,-0.0164481606334448,0.0307824518531561,0.0553612224757671
27.6206905012753,3.53654444072869,-41.9819984639305,43.6792155556848,-0.0167582165449858,0.0313269607722759,0.0563597157597542
27.6206905012753,3.53654444072869,-41.9819984639305,43.6792155556848,-0.0170680452138186,0.0318697057664394,0.0573557578027248
27.6206905012753,3.53654444072869,-41.9819984639305,43.6792155556848,-0.0173776466399431,0.0324106886982918,0.0583493523299694
27.6206905012753,3.53654444072869,-41.9819984639305,43.6792155556848,-0.0176870226860046,0.0329499095678329,0.0593405030667782
27.6206905012753,3.53654444072869,-41.9819984639305,43.6792155556848,-0.0179961733520031,0.0334873721003532,0.0603292100131512
27.6206905012753,3.53654444072869,-41.9819984639305,43.6792155556848,-0.0183050967752934,0.0340230762958527,0.0613154768943787
27.6206905012753,3.53654444072869,-41.9819984639305,43.6792155556848,-0.0186137966811657,0.0345570258796215,0.062299307435751
27.6206905012753,3.53654444072869,-41.9819984639305,43.6792155556848,-0.018922271206975,0.0350892208516598,0.0632807016372681
27.6206905012753,3.53654444072869,-41.9819984639305,43.6792155556848,-0.0192305222153664,0.0356196612119675,0.0642596632242203
27.6206905012753,3.53654444072869,-41.9819984639305,43.6792155556848,-0.0195385497063398,0.0361483506858349,0.0652361959218979
27.6206905012753,3.53654444072869,-41.9819984639305,43.6792155556848,-0.0198463536798954,0.036675289273262,0.0662102997303009
27.6206905012753,3.53654444072869,-41.9819984639305,43.6792155556848,-0.0201539341360331,0.0372004769742489,0.0671819746494293
27.6206905012753,3.53654444072869,-41.9819984639305,43.6792155556848,-0.020461292937398,0.0377239175140858,0.0681512281298637
27.6206905012753,3.53654444072869,-41.9819984639305,43.6792155556848,-0.0207684300839901,0.038245614618063,0.0691180601716042
27.6206905012753,3.53654444072869,-41.9819984639305,43.6792155556848,-0.0210753455758095,0.0387655645608902,0.0700824782252312
27.6206905012753,3.53654444072869,-41.9819984639305,43.6792155556848,-0.0213820412755013,0.0392837710678577,0.0710444822907448
27.6206905012753,3.53654444072869,-41.9819984639305,43.6792155556848,-0.0216885171830654,0.0398002378642559,0.072004072368145
27.6206905012753,3.53654444072869,-41.9819984639305,43.6792155556848,-0.021994773298502,0.0403149649500847,0.0729612484574318
27.6206905012753,3.53654444072869,-41.9819984639305,43.6792155556848,-0.0223008096218109,0.0408279523253441,0.0739160180091858
27.6206905012753,3.53654444072869,-41.9819984639305,43.6792155556848,-0.0226066261529922,0.0413392037153244,0.074868381023407
27.6206905012753,3.53654444072869,-41.9819984639305,43.6792155556848,-0.0229122247546911,0.0418487191200256,0.075818344950676
27.6206905012753,3.53654444072869,-41.9819984639305,43.6792155556848,-0.0232176054269075,0.0423565022647381,0.0767659097909927
27.6206905012753,3.53654444072869,-41.9819984639305,43.6792155556848,-0.0235227681696415,0.0428625494241714,0.0777110755443573
27.6206905012753,3.53654444072869,-41.9819984639305,43.6792155556848,-0.0238277148455381,0.0433668680489063,0.0786538422107697
27.6206905012753,3.53654444072869,-41.9819984639305,43.6792155556848,-0.0241324435919523,0.0438694544136524,0.0795942172408104
27.6206905012753,3.53654444072869,-41.9819984639305,43.6792155556848,-0.0244369562715292,0.0443703159689903,0.0805322006344795
27.6206905012753,3.53654444072869,-41.9819984639305,43.6792155556848,-0.0247412547469139,0.0448694489896297,0.0814677998423576
27.6206905012753,3.53654444072869,-41.9819984639305,43.6792155556848,-0.0250453371554613,0.045366857200861,0.0824010148644447
27.6206905012753,3.53654444072869,-41.9819984639305,43.6792155556848,-0.0253492053598166,0.045862540602684,0.0833318457007408
27.6206905012753,3.53654444072869,-41.9819984639305,43.6792155556848,-0.0256528593599796,0.0463565029203892,0.0842602923512459
27.6206905012753,3.53654444072869,-41.9819984639305,43.6792155556848,-0.0259562991559505,0.0468487441539764,0.0851863622665405
27.6206905012753,3.53654444072869,-41.9819984639305,43.6792155556848,-0.0262595266103745,0.0473392643034458,0.0861100554466248
27.6206905012753,3.53654444072869,-41.9819984639305,43.6792155556848,-0.0265625398606062,0.0478280670940876,0.0870313793420792
27.6206905012753,3.53654444072869,-41.9819984639305,43.6792155556848,-0.0268653407692909,0.0483151562511921,0.0879503339529037
27.6206905012753,3.53654444072869,-41.9819984639305,43.6792155556848,-0.0271679311990738,0.048800528049469,0.0888669192790985
27.6206905012753,3.53654444072869,-41.9819984639305,43.6792155556848,-0.0274703092873096,0.0492841862142086,0.0897811353206635
27.6206905012753,3.53654444072869,-41.9819984639305,43.6792155556848,-0.0277724768966436,0.0497661344707012,0.0906929895281792
27.6206905012753,3.53654444072869,-41.9819984639305,43.6792155556848,-0.0280744340270758,0.0502463728189468,0.0916024819016457
27.6206905012753,3.53654444072869,-41.9819984639305,43.6792155556848,-0.028376180678606,0.0507249012589455,0.0925096198916435
27.6206905012753,3.53654444072869,-41.9819984639305,43.6792155556848,-0.0286777187138796,0.0512017197906971,0.0934144034981728
27.6206905012753,3.53654444072869,-41.9819984639305,43.6792155556848,-0.0289790462702513,0.051676832139492,0.0943168327212334
27.6206905012753,3.53654444072869,-41.9819984639305,43.6792155556848,-0.0292801652103662,0.0521502420306206,0.0952169075608253
27.6206905012753,3.53654444072869,-41.9819984639305,43.6792155556848,-0.0295810755342245,0.0526219494640827,0.0961146354675293
27.6206905012753,3.53654444072869,-41.9819984639305,43.6792155556848,-0.0298817791044712,0.0530919544398785,0.0970100164413452
27.6206905012753,3.53654444072869,-41.9819984639305,43.6792155556848,-0.0301822759211063,0.0535602606832981,0.0979030579328537
27.6206905012753,3.53654444072869,-41.9819984639305,43.6792155556848,-0.0304825659841299,0.0540268681943417,0.0987937599420547
27.6206905012753,3.53654444072869,-41.9819984639305,43.6792155556848,-0.0307826492935419,0.0544917769730091,0.0996821224689484
27.6206905012753,3.53654444072869,-41.9819984639305,43.6792155556848,-0.0310825258493423,0.0549549907445908,0.100568145513535
27.6206905012753,3.53654444072869,-41.9819984639305,43.6792155556848,-0.0313821956515312,0.0554165095090866,0.101451836526394
27.6206905012753,3.53654444072869,-41.9819984639305,43.6792155556848,-0.0316816605627537,0.0558763332664967,0.102333195507526
27.6206905012753,3.53654444072869,-41.9819984639305,43.6792155556848,-0.0319809243083,0.0563344657421112,0.103212229907513
27.6206905012753,3.53654444072869,-41.9819984639305,43.6792155556848,-0.0322799831628799,0.0567909106612206,0.104088932275772
27.6206905012753,3.53654444072869,-41.9819984639305,43.6792155556848,-0.0325788371264935,0.0572456642985344,0.104963310062885
27.6206905012753,3.53654444072869,-41.9819984639305,43.6792155556848,-0.0328774899244308,0.0576987341046333,0.105835370719433
27.6206905012753,3.53654444072869,-41.9819984639305,43.6792155556848,-0.0331759378314018,0.0581501163542271,0.106705114245415
27.6206905012753,3.53654444072869,-41.9819984639305,43.6792155556848,-0.0334741845726967,0.0585998147726059,0.107572540640831
27.6206905012753,3.53654444072869,-41.9819984639305,43.6792155556848,-0.0337722301483154,0.0590478293597698,0.108437649905682
27.6206905012753,3.53654444072869,-41.9819984639305,43.6792155556848,-0.0340700745582581,0.0594941638410091,0.109300449490547
27.6206905012753,3.53654444072869,-41.9819984639305,43.6792155556848,-0.0343677178025246,0.0599388182163239,0.110160939395428
27.6206905012753,3.53654444072869,-41.9819984639305,43.6792155556848,-0.034665159881115,0.0603817962110043,0.111019119620323
27.6206905012753,3.53654444072869,-41.9819984639305,43.6792155556848,-0.0349624007940292,0.0608230940997601,0.111874997615814
27.6206905012753,3.53654444072869,-41.9819984639305,43.6792155556848,-0.0352594442665577,0.0612627193331718,0.112728573381901
27.6206905012753,3.53654444072869,-41.9819984639305,43.6792155556848,-0.03555628657341,0.0617006681859493,0.113579846918583
27.6206905012753,3.53654444072869,-41.9819984639305,43.6792155556848,-0.0358529314398766,0.0621369443833828,0.114428825676441
27.6206905012753,3.53654444072869,-41.9819984639305,43.6792155556848,-0.0361493788659573,0.0625715479254723,0.115275509655476
27.6206905012753,3.53654444072869,-41.9819984639305,43.6792155556848,-0.0364456288516521,0.0630044862627983,0.116119906306267
27.6206905012753,3.53654444072869,-41.9819984639305,43.6792155556848,-0.0367416813969612,0.0634357556700706,0.116962008178234
27.6206905012753,3.53654444072869,-41.9819984639305,43.6792155556848,-0.0370375365018845,0.0638653561472893,0.117801822721958
27.6206905012753,3.53654444072869,-41.9819984639305,43.6792155556848,-0.0373331941664219,0.0642932951450348,0.11863935738802
27.6206905012753,3.53654444072869,-41.9819984639305,43.6792155556848,-0.0376286543905735,0.0647195652127266,0.119474604725838
27.6206905012753,3.53654444072869,-41.9819984639305,43.6792155556848,-0.0379239208996296,0.0651441738009453,0.120307572185993
27.6206905012753,3.53654444072869,-41.9819984639305,43.6792155556848,-0.0382189936935902,0.0655671209096909,0.121138267219067
27.6206905012753,3.53654444072869,-41.9819984639305,43.6792155556848,-0.0385138690471649,0.0659884139895439,0.121966682374477
27.6206905012753,3.53654444072869,-41.9819984639305,43.6792155556848,-0.0388085506856442,0.0664080455899239,0.122792825102806
27.6206905012753,3.53654444072869,-41.9819984639305,43.6792155556848,-0.0391030386090279,0.0668260231614113,0.123616695404053
27.6206905012753,3.53654444072869,-41.9819984639305,43.6792155556848,-0.0393973328173161,0.0672423392534256,0.124438300728798
27.6206905012753,3.53654444072869,-41.9819984639305,43.6792155556848,-0.039691437035799,0.067657008767128,0.125257641077042
27.6206905012753,3.53654444072869,-41.9819984639305,43.6792155556848,-0.0399853475391865,0.0680700242519379,0.126074716448784
27.6206905012753,3.53654444072869,-41.9819984639305,43.6792155556848,-0.0402790680527687,0.0684813857078552,0.126889526844025
27.6206905012753,3.53654444072869,-41.9819984639305,43.6792155556848,-0.0405725948512554,0.0688911005854607,0.127702087163925
27.6206905012753,3.53654444072869,-41.9819984639305,43.6792155556848,-0.0408659316599369,0.0692991688847542,0.128512382507324
27.6206905012753,3.53654444072869,-41.9819984639305,43.6792155556848,-0.0411590784788132,0.0697055906057358,0.129320427775383
27.6206905012753,3.53654444072869,-41.9819984639305,43.6792155556848,-0.0414520353078842,0.0701103657484055,0.130126222968102
27.6206905012753,3.53654444072869,-41.9819984639305,43.6792155556848,-0.04174480214715,0.0705134943127632,0.13092976808548
27.6206905012753,3.53654444072869,-41.9819984639305,43.6792155556848,-0.0420373789966106,0.0709149837493896,0.131731063127518
27.6206905012753,3.53654444072869,-41.9819984639305,43.6792155556848,-0.042329765856266,0.0713148340582848,0.132530122995377
27.6206905012753,3.53654444072869,-41.9819984639305,43.6792155556848,-0.0426219664514065,0.071713037788868,0.133326932787895
27.6206905012753,3.53654444072869,-41.9819984639305,43.6792155556848,-0.0429139770567417,0.0721096098423004,0.134121507406235
27.6206905012753,3.53654444072869,-41.9819984639305,43.6792155556848,-0.043205801397562,0.0725045427680016,0.134913846850395
27.6206905012753,3.53654444072869,-41.9819984639305,43.6792155556848,-0.0434974394738674,0.072897844016552,0.135703951120377
27.6206905012753,3.53654444072869,-41.9819984639305,43.6792155556848,-0.0437888912856579,0.0732895061373711,0.136491820216179
27.6206905012753,3.53654444072869,-41.9819984639305,43.6792155556848,-0.0440801568329334,0.0736795365810394,0.137277469038963
27.6206905012753,3.53654444072869,-41.9819984639305,43.6792155556848,-0.044371236115694,0.0740679353475571,0.138060882687569
27.6206905012753,3.53654444072869,-41.9819984639305,43.6792155556848,-0.0446621291339397,0.0744547098875046,0.138842076063156
27.6206905012753,3.53654444072869,-41.9819984639305,43.6792155556848,-0.0449528396129608,0.0748398527503014,0.139621049165726
27.6206905012753,3.53654444072869,-41.9819984639305,43.6792155556848,-0.045243363827467,0.075223371386528,0.140397801995277
27.6206905012753,3.53654444072869,-41.9819984639305,43.6792155556848,-0.0455337055027485,0.0756052657961845,0.141172334551811
27.6206905012753,3.53654444072869,-41.9819984639305,43.6792155556848,-0.0458238646388054,0.0759855359792709,0.141944646835327
27.6206905012753,3.53654444072869,-41.9819984639305,43.6792155556848,-0.0461138375103474,0.0763641819357872,0.142714753746986
27.6206905012753,3.53654444072869,-41.9819984639305,43.6792155556848,-0.0464036278426647,0.0767412036657333,0.143482655286789
27.6206905012753,3.53654444072869,-41.9819984639305,43.6792155556848,-0.0466932393610477,0.0771166086196899,0.144248336553574
27.6206905012753,3.53654444072869,-41.9819984639305,43.6792155556848,-0.0469826683402061,0.077490396797657,0.145011812448502
27.6206905012753,3.53654444072869,-41.9819984639305,43.6792155556848,-0.0472719147801399,0.0778625681996346,0.145773082971573
27.6206905012753,3.53654444072869,-41.9819984639305,43.6792155556848,-0.0475609824061394,0.0782331228256226,0.146532163023949
27.6206905012753,3.53654444072869,-41.9819984639305,43.6792155556848,-0.0478498674929142,0.0786020681262016,0.147289037704468
27.6206905012753,3.53654444072869,-41.9819984639305,43.6792155556848,-0.0481385737657547,0.0789693966507912,0.148043721914291
27.6206905012753,3.53654444072869,-41.9819984639305,43.6792155556848,-0.0484271012246609,0.0793351158499718,0.148796215653419
27.6206905012753,3.53654444072869,-41.9819984639305,43.6792155556848,-0.0487154498696327,0.0796992257237434,0.149546504020691
27.6206905012753,3.53654444072869,-41.9819984639305,43.6792155556848,-0.0490036197006702,0.0800617262721062,0.150294616818428
27.6206905012753,3.53654444072869,-41.9819984639305,43.6792155556848,-0.0492916107177734,0.08042261749506,0.15104053914547
27.6206905012753,3.53654444072869,-41.9819984639305,43.6792155556848,-0.0495794229209423,0.0807819068431854,0.151784271001816
27.6206905012753,3.53654444072869,-41.9819984639305,43.6792155556848,-0.0498670563101768,0.0811395943164825,0.152525827288628
27.6206905012753,3.53654444072869,-41.9819984639305,43.6792155556848,-0.0501545146107674,0.0814956799149513,0.153265208005905
27.6206905012753,3.53654444072869,-41.9819984639305,43.6792155556848,-0.0504417978227139,0.0818501636385918,0.154002398252487
27.6206905012753,3.53654444072869,-41.9819984639305,43.6792155556848,-0.050728902220726,0.0822030454874039,0.154737412929535
27.6206905012753,3.53654444072869,-41.9819984639305,43.6792155556848,-0.0510158315300941,0.0825543329119682,0.15547026693821
27.6206905012753,3.53654444072869,-41.9819984639305,43.6792155556848,-0.0513025857508183,0.0829040184617043,0.15620094537735
27.6206905012753,3.53654444072869,-41.9819984639305,43.6792155556848,-0.0515891648828983,0.0832521095871925,0.156929448246956
27.6206905012753,3.53654444072869,-41.9819984639305,43.6792155556848,-0.0518755726516247,0.0835986062884331,0.157655790448189
27.6206905012753,3.53654444072869,-41.9819984639305,43.6792155556848,-0.052161805331707,0.0839435085654259,0.158379971981049
27.6206905012753,3.53654444072869,-41.9819984639305,43.6792155556848,-0.0524478629231453,0.0842868238687515,0.159101992845535
27.6206905012753,3.53654444072869,-41.9819984639305,43.6792155556848,-0.0527337491512299,0.08462855219841,0.159821853041649
27.6206905012753,3.53654444072869,-41.9819984639305,43.6792155556848,-0.0530194640159607,0.0849686861038208,0.160539552569389
27.6206905012753,3.53654444072869,-41.9819984639305,43.6792155556848,-0.0533050037920475,0.0853072330355644,0.161255106329918
27.6206905012753,3.53654444072869,-41.9819984639305,43.6792155556848,-0.0535903722047806,0.0856442004442215,0.161968499422073
27.6206905012753,3.53654444072869,-41.9819984639305,43.6792155556848,-0.0538755692541599,0.0859795808792114,0.162679746747017
27.6206905012753,3.53654444072869,-41.9819984639305,43.6792155556848,-0.0541605949401855,0.0863133817911148,0.163388848304749
27.6206905012753,3.53654444072869,-41.9819984639305,43.6792155556848,-0.0544454529881477,0.086645595729351,0.164095804095268
27.6206905012753,3.53654444072869,-41.9819984639305,43.6792155556848,-0.0547301396727562,0.0869762301445007,0.164800629019737
27.6206905012753,3.53654444072869,-41.9819984639305,43.6792155556848,-0.0550146587193012,0.0873052850365639,0.165503308176994
27.6206905012753,3.53654444072869,-41.9819984639305,43.6792155556848,-0.0552990064024925,0.0876327678561211,0.166203841567039
27.6206905012753,3.53654444072869,-41.9819984639305,43.6792155556848,-0.0555831864476204,0.0879586711525917,0.166902244091034
27.6206905012753,3.53654444072869,-41.9819984639305,43.6792155556848,-0.0558671988546848,0.0882830023765564,0.167598515748978
27.6206905012753,3.53654444072869,-41.9819984639305,43.6792155556848,-0.0561510436236858,0.0886057615280151,0.168292656540871
27.6206905012753,3.53654444072869,-41.9819984639305,43.6792155556848,-0.0564347207546234,0.0889269486069679,0.168984666466713
27.6206905012753,3.53654444072869,-41.9819984639305,43.6792155556848,-0.0567182302474976,0.0892465636134148,0.169674560427666
27.6206905012753,3.53654444072869,-41.9819984639305,43.6792155556848,-0.0570015721023083,0.0895646139979362,0.170362323522568
27.6206905012753,3.53654444072869,-41.9819984639305,43.6792155556848,-0.0572847500443459,0.0898810923099518,0.17104797065258
27.6206905012753,3.53654444072869,-41.9819984639305,43.6792155556848,-0.05756776034832,0.090196006000042,0.171731501817703
27.6206905012753,3.53654444072869,-41.9819984639305,43.6792155556848,-0.057850606739521,0.0905093550682068,0.172412902116776
27.6206905012753,3.53654444072869,-41.9819984639305,43.6792155556848,-0.0581332854926586,0.0908211395144463,0.173092201352119
27.6206905012753,3.53654444072869,-41.9819984639305,43.6792155556848,-0.0584158003330231,0.091131366789341,0.173769384622574
27.6206905012753,3.53654444072869,-41.9819984639305,43.6792155556848,-0.0586981512606144,0.0914400294423103,0.174444451928139
27.6206905012753,3.53654444072869,-41.9819984639305,43.6792155556848,-0.0589803382754326,0.0917471349239349,0.175117418169975
27.6206905012753,3.53654444072869,-41.9819984639305,43.6792155556848,-0.0592623651027679,0.0920526832342148,0.175788283348083
27.6206905012753,3.53654444072869,-41.9819984639305,43.6792155556848,-0.0595442280173302,0.0923566743731499,0.176457047462463
27.6206905012753,3.53654444072869,-41.9819984639305,43.6792155556848,-0.0598259270191193,0.0926591083407402,0.177123710513115
27.6206905012753,3.53654444072869,-41.9819984639305,43.6792155556848,-0.0601074658334255,0.0929599925875664,0.177788272500038
27.6206905012753,3.53654444072869,-41.9819984639305,43.6792155556848,-0.0603888444602489,0.0932593271136284,0.178450733423233
27.6206905012753,3.53654444072869,-41.9819984639305,43.6792155556848,-0.0606700591742992,0.0935571044683456,0.179111108183861
27.6206905012753,3.53654444072869,-41.9819984639305,43.6792155556848,-0.0609511137008667,0.0938533321022987,0.17976938188076
27.6206905012753,3.53654444072869,-41.9819984639305,43.6792155556848,-0.0612320080399513,0.0941480174660683,0.180425569415092
27.6206905012753,3.53654444072869,-41.9819984639305,43.6792155556848,-0.0615127421915531,0.0944411531090736,0.181079670786858
27.6206905012753,3.53654444072869,-41.9819984639305,43.6792155556848,-0.0617933161556721,0.0947327464818954,0.181731685996056
27.6206905012753,3.53654444072869,-41.9819984639305,43.6792155556848,-0.0620737336575985,0.0950227975845337,0.182381629943848
27.6206905012753,3.53654444072869,-41.9819984639305,43.6792155556848,-0.0623539909720421,0.0953113064169884,0.183029487729073
27.6206905012753,3.53654444072869,-41.9819984639305,43.6792155556848,-0.0626340880990028,0.0955982729792595,0.183675274252892
27.6206905012753,3.53654444072869,-41.9819984639305,43.6792155556848,-0.0629140287637711,0.095883697271347,0.184318974614143
27.6206905012753,3.53654444072869,-41.9819984639305,43.6792155556848,-0.0631938129663467,0.0961675867438316,0.184960603713989
27.6206905012753,3.53654444072869,-41.9819984639305,43.6792155556848,-0.0634734407067299,0.0964499339461327,0.185600161552429
27.6206905012753,3.53654444072869,-41.9819984639305,43.6792155556848,-0.0637529119849205,0.0967307463288307,0.186237648129463
27.6206905012753,3.53654444072869,-41.9819984639305,43.6792155556848,-0.0640322268009186,0.0970100238919258,0.186873078346252
27.6206905012753,3.53654444072869,-41.9819984639305,43.6792155556848,-0.0643113851547241,0.0972877740859985,0.187506437301636
27.6206905012753,3.53654444072869,-41.9819984639305,43.6792155556848,-0.0645903870463371,0.0975639894604683,0.188137739896774
27.6206905012753,3.53654444072869,-41.9819984639305,43.6792155556848,-0.0648692399263382,0.0978386774659157,0.188766986131668
27.6206905012753,3.53654444072869,-41.9819984639305,43.6792155556848,-0.0651479363441467,0.0981118381023407,0.189394176006317
27.6206905012753,3.53654444072869,-41.9819984639305,43.6792155556848,-0.0654264762997627,0.0983834713697433,0.190019309520721
27.6206905012753,3.53654444072869,-41.9819984639305,43.6792155556848,-0.0657048672437668,0.0986535772681236,0.190642386674881
27.6206905012753,3.53654444072869,-41.9819984639305,43.6792155556848,-0.0659831017255783,0.0989221557974815,0.191263422369957
27.6206905012753,3.53654444072869,-41.9819984639305,43.6792155556848,-0.0662611871957779,0.0991892144083977,0.191882401704788
27.6206905012753,3.53654444072869,-41.9819984639305,43.6792155556848,-0.0665391162037849,0.099454753100872,0.192499339580536
27.6206905012753,3.53654444072869,-41.9819984639305,43.6792155556848,-0.0668168962001801,0.0997187718749046,0.1931142359972
27.6206905012753,3.53654444072869,-41.9819984639305,43.6792155556848,-0.0670945271849632,0.0999812707304955,0.193727090954781
27.6206905012753,3.53654444072869,-41.9819984639305,43.6792155556848,-0.0673720017075539,0.100242249667645,0.194337904453278
27.6206905012753,3.53654444072869,-41.9819984639305,43.6792155556848,-0.0676493272185326,0.100501716136932,0.194946676492691
27.6206905012753,3.53654444072869,-41.9819984639305,43.6792155556848,-0.0679265037178993,0.100759662687778,0.195553421974182
27.6206905012753,3.53654444072869,-41.9819984639305,43.6792155556848,-0.0682035312056541,0.101016096770763,0.196158140897751
27.6206905012753,3.53654444072869,-41.9819984639305,43.6792155556848,-0.068480409681797,0.101271018385887,0.196760818362236
27.6206905012753,3.53654444072869,-41.9819984639305,43.6792155556848,-0.068757139146328,0.10152442753315,0.197361469268799
27.6206905012753,3.53654444072869,-41.9819984639305,43.6792155556848,-0.069033719599247,0.101776331663132,0.1979601085186
27.6206905012753,3.53654444072869,-41.9819984639305,43.6792155556848,-0.069310151040554,0.102026723325253,0.19855672121048
27.6206905012753,3.53654444072869,-41.9819984639305,43.6792155556848,-0.0695864334702492,0.102275609970093,0.199151307344437
27.6206905012753,3.53654444072869,-41.9819984639305,43.6792155556848,-0.0698625668883324,0.102522991597652,0.199743881821632
27.6206905012753,3.53654444072869,-41.9819984639305,43.6792155556848,-0.0701385587453842,0.102768868207932,0.200334429740906
27.6206905012753,3.53654444072869,-41.9819984639305,43.6792155556848,-0.0704144015908241,0.103013247251511,0.200922966003418
27.6206905012753,3.53654444072869,-41.9819984639305,43.6792155556848,-0.0706900954246521,0.103256121277809,0.201509490609169
27.6206905012753,3.53654444072869,-41.9819984639305,43.6792155556848,-0.0709656476974487,0.103497497737408,0.20209401845932
27.6206905012753,3.53654444072869,-41.9819984639305,43.6792155556848,-0.0712410509586334,0.103737376630306,0.20267653465271
27.6206905012753,3.53654444072869,-41.9819984639305,43.6792155556848,-0.0715163126587868,0.103975757956505,0.203257039189339
27.6206905012753,3.53654444072869,-41.9819984639305,43.6792155556848,-0.0717914253473282,0.104212641716003,0.203835546970367
27.6206905012753,3.53654444072869,-41.9819984639305,43.6792155556848,-0.0720663964748383,0.104448027908802,0.204412057995796
27.6206905012753,3.53654444072869,-41.9819984639305,43.6792155556848,-0.072341226041317,0.104681923985481,0.204986572265625
27.6206905012753,3.53654444072869,-41.9819984639305,43.6792155556848,-0.0726159140467644,0.104914329946041,0.205559089779854
27.6206905012753,3.53654444072869,-41.9819984639305,43.6792155556848,-0.0728904530405998,0.105145245790482,0.206129610538483
27.6206905012753,3.53654444072869,-41.9819984639305,43.6792155556848,-0.0731648504734039,0.105374671518803,0.206698134541512
27.6206905012753,3.53654444072869,-41.9819984639305,43.6792155556848,-0.0734391063451767,0.105602607131004,0.207264676690102
27.6206905012753,3.53654444072869,-41.9819984639305,43.6792155556848,-0.0737132206559181,0.105829060077667,0.207829236984253
27.6206905012753,3.53654444072869,-41.9819984639305,43.6792155556848,-0.0739871934056282,0.106054022908211,0.208391800522804
27.6206905012753,3.53654444072869,-41.9819984639305,43.6792155556848,-0.0742610245943069,0.106277503073215,0.208952382206917
27.6206905012753,3.53654444072869,-41.9819984639305,43.6792155556848,-0.0745347216725349,0.106499500572681,0.209510996937752
27.6206905012753,3.53654444072869,-41.9819984639305,43.6792155556848,-0.0748082771897316,0.106720022857189,0.210067629814148
27.6206905012753,3.53654444072869,-41.9819984639305,43.6792155556848,-0.0750816911458969,0.106939062476158,0.210622280836105
27.6206905012753,3.53654444072869,-41.9819984639305,43.6792155556848,-0.0753549635410309,0.107156626880169,0.211174964904785
27.6206905012753,3.53654444072869,-41.9819984639305,43.6792155556848,-0.0756281018257141,0.107372708618641,0.211725682020187
27.6206905012753,3.53654444072869,-41.9819984639305,43.6792155556848,-0.075901098549366,0.107587315142155,0.212274417281151
27.6206905012753,3.53654444072869,-41.9819984639305,43.6792155556848,-0.0761739611625671,0.10780044645071,0.212821200489998
27.6206905012753,3.53654444072869,-41.9819984639305,43.6792155556848,-0.0764466822147369,0.108012109994888,0.213366016745567
27.6206905012753,3.53654444072869,-41.9819984639305,43.6792155556848,-0.076719269156456,0.108222298324108,0.213908866047859
27.6206905012753,3.53654444072869,-41.9819984639305,43.6792155556848,-0.0769917145371437,0.10843101888895,0.214449763298035
27.6206905012753,3.53654444072869,-41.9819984639305,43.6792155556848,-0.0772640258073807,0.108638271689415,0.214988693594933
27.6206905012753,3.53654444072869,-41.9819984639305,43.6792155556848,-0.0775362029671669,0.108844056725502,0.215525671839714
27.6206905012753,3.53654444072869,-41.9819984639305,43.6792155556848,-0.0778082460165024,0.109048373997211,0.216060698032379
27.6206905012753,3.53654444072869,-41.9819984639305,43.6792155556848,-0.0780801549553871,0.109251223504543,0.216593772172928
27.6206905012753,3.53654444072869,-41.9819984639305,43.6792155556848,-0.0783519297838211,0.109452612698078,0.21712489426136
27.6206905012753,3.53654444072869,-41.9819984639305,43.6792155556848,-0.0786235630512238,0.109652541577816,0.217654079198837
27.6206905012753,3.53654444072869,-41.9819984639305,43.6792155556848,-0.0788950696587563,0.109851010143757,0.218181312084198
27.6206905012753,3.53654444072869,-41.9819984639305,43.6792155556848,-0.079166442155838,0.110048018395901,0.218706607818604
27.6206905012753,3.53654444072869,-41.9819984639305,43.6792155556848,-0.079437680542469,0.110243566334248,0.219229966402054
27.6206905012753,3.53654444072869,-41.9819984639305,43.6792155556848,-0.0797087848186493,0.110437661409378,0.219751372933388
27.6206905012753,3.53654444072869,-41.9819984639305,43.6792155556848,-0.0799797549843788,0.110630296170712,0.220270857214928
27.6206905012753,3.53654444072869,-41.9819984639305,43.6792155556848,-0.0802505910396576,0.110821478068829,0.220788404345512
27.6206905012753,3.53654444072869,-41.9819984639305,43.6792155556848,-0.0805213004350662,0.111011207103729,0.221304014325142
27.6206905012753,3.53654444072869,-41.9819984639305,43.6792155556848,-0.0807918757200241,0.111199483275414,0.221817702054977
27.6206905012753,3.53654444072869,-41.9819984639305,43.6792155556848,-0.0810623243451118,0.111386314034462,0.222329467535019
27.6206905012753,3.53654444072869,-41.9819984639305,43.6792155556848,-0.0813326388597488,0.111571691930294,0.222839295864105
27.6206905012753,3.53654444072869,-41.9819984639305,43.6792155556848,-0.0816028267145157,0.11175562441349,0.223347201943398
27.6206905012753,3.53654444072869,-41.9819984639305,43.6792155556848,-0.0818728804588318,0.111938111484051,0.223853200674057
27.6206905012753,3.53654444072869,-41.9819984639305,43.6792155556848,-0.0821428075432777,0.112119153141975,0.224357277154922
27.6206905012753,3.53654444072869,-41.9819984639305,43.6792155556848,-0.0824126079678535,0.112298749387264,0.224859431385994
27.6206905012753,3.53654444072869,-41.9819984639305,43.6792155556848,-0.0826822742819786,0.112476907670498,0.225359678268433
27.6206905012753,3.53654444072869,-41.9819984639305,43.6792155556848,-0.0829518139362335,0.112653620541096,0.225858017802238
27.6206905012753,3.53654444072869,-41.9819984639305,43.6792155556848,-0.0832212269306183,0.112828895449638,0.226354449987411
27.6206905012753,3.53654444072869,-41.9819984639305,43.6792155556848,-0.0834905132651329,0.113002732396126,0.226848974823952
27.6206905012753,3.53654444072869,-41.9819984639305,43.6792155556848,-0.0837596729397774,0.113175131380558,0.227341592311859
27.6206905012753,3.53654444072869,-41.9819984639305,43.6792155556848,-0.0840287059545517,0.113346099853516,0.227832302451134
27.6206905012753,3.53654444072869,-41.9819984639305,43.6792155556848,-0.0842976123094559,0.113515630364418,0.228321120142937
27.6206905012753,3.53654444072869,-41.9819984639305,43.6792155556848,-0.0845663920044899,0.113683730363846,0.228808030486107
27.6206905012753,3.53654444072869,-41.9819984639305,43.6792155556848,-0.0848350450396538,0.113850399851799,0.229293048381805
27.6206905012753,3.53654444072869,-41.9819984639305,43.6792155556848,-0.0851035788655281,0.114015638828278,0.229776173830032
27.6206905012753,3.53654444072869,-41.9819984639305,43.6792155556848,-0.0853719860315323,0.114179447293282,0.230257406830788
27.6206905012753,3.53654444072869,-41.9819984639305,43.6792155556848,-0.0856402665376663,0.114341825246811,0.230736747384071
27.6206905012753,3.53654444072869,-41.9819984639305,43.6792155556848,-0.0859084278345108,0.114502780139446,0.231214210391045
27.6206905012753,3.53654444072869,-41.9819984639305,43.6792155556848,-0.0861764624714851,0.114662311971188,0.231689780950546
27.6206905012753,3.53654444072869,-41.9819984639305,43.6792155556848,-0.0864443778991699,0.114820420742035,0.232163473963737
27.6206905012753,3.53654444072869,-41.9819984639305,43.6792155556848,-0.0867121666669846,0.114977106451988,0.232635274529457
27.6206905012753,3.53654444072869,-41.9819984639305,43.6792155556848,-0.0869798362255096,0.115132369101048,0.233105197548866
27.6206905012753,3.53654444072869,-41.9819984639305,43.6792155556848,-0.0872473865747452,0.115286208689213,0.233573243021965
27.6206905012753,3.53654444072869,-41.9819984639305,43.6792155556848,-0.0875148102641106,0.115438632667065,0.234039425849915
27.6206905012753,3.53654444072869,-41.9819984639305,43.6792155556848,-0.0877821147441864,0.115589641034603,0.234503731131554
27.6206905012753,3.53654444072869,-41.9819984639305,43.6792155556848,-0.0880493000149727,0.115739233791828,0.234966173768044
27.6206905012753,3.53654444072869,-41.9819984639305,43.6792155556848,-0.0883163660764694,0.11588741093874,0.235426738858223
27.6206905012753,3.53654444072869,-41.9819984639305,43.6792155556848,-0.0885833129286766,0.116034172475338,0.235885441303253
27.6206905012753,3.53654444072869,-41.9819984639305,43.6792155556848,-0.0888501405715942,0.116179525852203,0.236342281103134
27.6206905012753,3.53654444072869,-41.9819984639305,43.6792155556848,-0.0891168490052223,0.116323471069336,0.236797258257866
27.6206905012753,3.53654444072869,-41.9819984639305,43.6792155556848,-0.0893834382295609,0.116466000676155,0.237250372767448
27.6206905012753,3.53654444072869,-41.9819984639305,43.6792155556848,-0.0896499082446098,0.116607122123241,0.237701639533043
27.6206905012753,3.53654444072869,-41.9819984639305,43.6792155556848,-0.0899162590503693,0.116746842861176,0.238151043653488
27.6206905012753,3.53654444072869,-41.9819984639305,43.6792155556848,-0.0901824906468391,0.116885155439377,0.238598600029945
27.6206905012753,3.53654444072869,-41.9819984639305,43.6792155556848,-0.0904486104846001,0.117022067308426,0.239044308662415
27.6206905012753,3.53654444072869,-41.9819984639305,43.6792155556848,-0.0907146111130714,0.117157571017742,0.239488169550896
27.6206905012753,3.53654444072869,-41.9819984639305,43.6792155556848,-0.0909804925322533,0.117291674017906,0.239930182695389
27.6206905012753,3.53654444072869,-41.9819984639305,43.6792155556848,-0.0912462621927261,0.117424376308918,0.240370348095894
27.6206905012753,3.53654444072869,-41.9819984639305,43.6792155556848,-0.0915119126439095,0.117555685341358,0.240808680653572
27.6206905012753,3.53654444072869,-41.9819984639305,43.6792155556848,-0.0917774513363838,0.117685593664646,0.241245165467262
27.6206905012753,3.53654444072869,-41.9819984639305,43.6792155556848,-0.0920428708195686,0.117814108729362,0.241679817438126
27.6206905012753,3.53654444072869,-41.9819984639305,43.6792155556848,-0.0923081785440445,0.117941230535507,0.242112636566162
27.6206905012753,3.53654444072869,-41.9819984639305,43.6792155556848,-0.0925733745098114,0.1180669516325,0.242543622851372
27.6206905012753,3.53654444072869,-41.9819984639305,43.6792155556848,-0.0928384512662888,0.118191286921501,0.242972776293755
27.6206905012753,3.53654444072869,-41.9819984639305,43.6792155556848,-0.0931034162640572,0.118314228951931,0.243400096893311
27.6206905012753,3.53654444072869,-41.9819984639305,43.6792155556848,-0.0933682695031166,0.118435777723789,0.243825599551201
27.6206905012753,3.53654444072869,-41.9819984639305,43.6792155556848,-0.0936330109834671,0.118555940687656,0.244249269366264
27.6206905012753,3.53654444072869,-41.9819984639305,43.6792155556848,-0.0938976407051086,0.118674717843533,0.244671121239662
27.6206905012753,3.53654444072869,-41.9819984639305,43.6792155556848,-0.0941621586680412,0.118792109191418,0.245091155171394
27.6206905012753,3.53654444072869,-41.9819984639305,43.6792155556848,-0.0944265648722649,0.118908114731312,0.245509371161461
27.6206905012753,3.53654444072869,-41.9819984639305,43.6792155556848,-0.0946908593177795,0.119022741913795,0.245925769209862
27.6206905012753,3.53654444072869,-41.9819984639305,43.6792155556848,-0.0949550420045853,0.119135983288288,0.246340349316597
27.6206905012753,3.53654444072869,-41.9819984639305,43.6792155556848,-0.095219112932682,0.11924784630537,0.246753111481667
27.6206905012753,3.53654444072869,-41.9819984639305,43.6792155556848,-0.0954830795526505,0.119358330965042,0.247164070606232
27.6206905012753,3.53654444072869,-41.9819984639305,43.6792155556848,-0.0957469344139099,0.119467437267303,0.247573226690292
27.6206905012753,3.53654444072869,-41.9819984639305,43.6792155556848,-0.0960106775164604,0.119575165212154,0.247980579733849
27.6206905012753,3.53654444072869,-41.9819984639305,43.6792155556848,-0.0962743163108826,0.119681514799595,0.2483861297369
27.6206905012753,3.53654444072869,-41.9819984639305,43.6792155556848,-0.0965378433465958,0.119786493480206,0.248789876699448
27.6206905012753,3.53654444072869,-41.9819984639305,43.6792155556848,-0.0968012660741806,0.119890101253986,0.24919182062149
27.6206905012753,3.53654444072869,-41.9819984639305,43.6792155556848,-0.0970645770430565,0.119992338120937,0.249591961503029
27.6206905012753,3.53654444072869,-41.9819984639305,43.6792155556848,-0.097327783703804,0.120093204081059,0.249990314245224
27.6206905012753,3.53654444072869,-41.9819984639305,43.6792155556848,-0.0975908860564232,0.12019269913435,0.250386863946915
27.6206905012753,3.53654444072869,-41.9819984639305,43.6792155556848,-0.0978538766503334,0.120290830731392,0.250781625509262
27.6206905012753,3.53654444072869,-41.9819984639305,43.6792155556848,-0.0981167629361153,0.120387591421604,0.251174598932266
27.6206905012753,3.53654444072869,-41.9819984639305,43.6792155556848,-0.0983795449137688,0.120482988655567,0.251565784215927
27.6206905012753,3.53654444072869,-41.9819984639305,43.6792155556848,-0.0986422225832939,0.120577022433281,0.251955181360245
27.6206905012753,3.53654444072869,-41.9819984639305,43.6792155556848,-0.0989047959446907,0.120669692754745,0.252342820167542
27.6206905012753,3.53654444072869,-41.9819984639305,43.6792155556848,-0.0991672649979591,0.120760999619961,0.252728670835495
27.6206905012753,3.53654444072869,-41.9819984639305,43.6792155556848,-0.0994296297430992,0.120850950479507,0.253112733364105
27.6206905012753,3.53654444072869,-41.9819984639305,43.6792155556848,-0.0996918901801109,0.120939537882805,0.253495037555695
27.6206905012753,3.53654444072869,-41.9819984639305,43.6792155556848,-0.0999540463089943,0.121026769280434,0.253875553607941
27.6206905012753,3.53654444072869,-41.9819984639305,43.6792155556848,-0.100216098129749,0.121112644672394,0.254254311323166
27.6206905012753,3.53654444072869,-41.9819984639305,43.6792155556848,-0.100478045642376,0.121197164058685,0.254631280899048
27.6206905012753,3.53654444072869,-41.9819984639305,43.6792155556848,-0.100739896297455,0.121280334889889,0.255006492137909
27.6206905012753,3.53654444072869,-41.9819984639305,43.6792155556848,-0.101001642644405,0.121362149715424,0.255379945039749
27.6206905012753,3.53654444072869,-41.9819984639305,43.6792155556848,-0.101263284683228,0.12144261598587,0.255751639604568
27.6206905012753,3.53654444072869,-41.9819984639305,43.6792155556848,-0.101524829864502,0.121521733701229,0.256121575832367
27.6206905012753,3.53654444072869,-41.9819984639305,43.6792155556848,-0.101786270737648,0.1215995028615,0.256489753723145
27.6206905012753,3.53654444072869,-41.9819984639305,43.6792155556848,-0.102047614753246,0.121675923466682,0.256856173276901
27.6206905012753,3.53654444072869,-41.9819984639305,43.6792155556848,-0.102308854460716,0.121750995516777,0.257220834493637
27.6206905012753,3.53654444072869,-41.9819984639305,43.6792155556848,-0.102569997310638,0.121824726462364,0.257583737373352
27.6206905012753,3.53654444072869,-41.9819984639305,43.6792155556848,-0.102831035852432,0.121897116303444,0.257944881916046
27.6206905012753,3.53654444072869,-41.9819984639305,43.6792155556848,-0.103091977536678,0.121968165040016,0.258304297924042
27.6206905012753,3.53654444072869,-41.9819984639305,43.6792155556848,-0.103352822363377,0.122037872672081,0.258661955595016
27.6206905012753,3.53654444072869,-41.9819984639305,43.6792155556848,-0.103613570332527,0.122106239199638,0.25901785492897
27.6206905012753,3.53654444072869,-41.9819984639305,43.6792155556848,-0.10387422144413,0.122173264622688,0.259372025728226
27.6206905012753,3.53654444072869,-41.9819984639305,43.6792155556848,-0.104134775698185,0.122238956391811,0.259724467992783
27.6206905012753,3.53654444072869,-41.9819984639305,43.6792155556848,-0.104395233094692,0.122303314507008,0.260075151920319
27.6206905012753,3.53654444072869,-41.9819984639305,43.6792155556848,-0.104655593633652,0.122366338968277,0.260424107313156
27.6206905012753,3.53654444072869,-41.9819984639305,43.6792155556848,-0.104915857315063,0.12242802977562,0.260771334171295
27.6206905012753,3.53654444072869,-41.9819984639305,43.6792155556848,-0.105176024138927,0.122488386929035,0.261116832494736
27.6206905012753,3.53654444072869,-41.9819984639305,43.6792155556848,-0.105436094105244,0.122547410428524,0.261460602283478
27.6206905012753,3.53654444072869,-41.9819984639305,43.6792155556848,-0.105696067214012,0.122605107724667,0.261802643537521
27.6206905012753,3.53654444072869,-41.9819984639305,43.6792155556848,-0.105955943465233,0.122661478817463,0.262142956256866
27.6206905012753,3.53654444072869,-41.9819984639305,43.6792155556848,-0.106215730309486,0.122716523706913,0.262481540441513
27.6206905012753,3.53654444072869,-41.9819984639305,43.6792155556848,-0.106475420296192,0.122770242393017,0.262818396091461
27.6206905012753,3.53654444072869,-41.9819984639305,43.6792155556848,-0.10673501342535,0.122822634875774,0.263153553009033
27.6206905012753,3.53654444072869,-41.9819984639305,43.6792155556848,-0.106994517147541,0.122873701155186,0.263486981391907
27.6206905012753,3.53654444072869,-41.9819984639305,43.6792155556848,-0.107253924012184,0.122923448681831,0.263818681240082
27.6206905012753,3.53654444072869,-41.9819984639305,43.6792155556848,-0.10751324146986,0.122971877455711,0.264148682355881
27.6206905012753,3.53654444072869,-41.9819984639305,43.6792155556848,-0.107772462069988,0.123018987476826,0.264476984739304
27.6206905012753,3.53654444072869,-41.9819984639305,43.6792155556848,-0.108031593263149,0.123064778745174,0.264803558588028
27.6206905012753,3.53654444072869,-41.9819984639305,43.6792155556848,-0.108290635049343,0.123109251260757,0.265128433704376
27.6206905012753,3.53654444072869,-41.9819984639305,43.6792155556848,-0.10854958742857,0.123152412474155,0.265451610088348
27.6206905012753,3.53654444072869,-41.9819984639305,43.6792155556848,-0.108808442950249,0.123194254934788,0.265773087739944
27.6206905012753,3.53654444072869,-41.9819984639305,43.6792155556848,-0.10906720906496,0.123234786093235,0.266092866659164
27.6206905012753,3.53654444072869,-41.9819984639305,43.6792155556848,-0.109325885772705,0.123274005949497,0.266410946846008
27.6206905012753,3.53654444072869,-41.9819984639305,43.6792155556848,-0.109584473073483,0.123311914503574,0.266727328300476
27.6206905012753,3.53654444072869,-41.9819984639305,43.6792155556848,-0.109842970967293,0.123348511755466,0.267042011022568
27.6206905012753,3.53654444072869,-41.9819984639305,43.6792155556848,-0.110101379454136,0.123383805155754,0.267354995012283
27.6206905012753,3.53654444072869,-41.9819984639305,43.6792155556848,-0.110359698534012,0.123417787253857,0.267666280269623
27.6206905012753,3.53654444072869,-41.9819984639305,43.6792155556848,-0.110617928206921,0.123450465500355,0.267975896596909
27.6206905012753,3.53654444072869,-41.9819984639305,43.6792155556848,-0.110876068472862,0.123481839895248,0.268283814191818
27.6206905012753,3.53654444072869,-41.9819984639305,43.6792155556848,-0.111134126782417,0.123511910438538,0.268590062856674
27.6206905012753,3.53654444072869,-41.9819984639305,43.6792155556848,-0.111392095685005,0.123540684580803,0.268894612789154
27.6206905012753,3.53654444072869,-41.9819984639305,43.6792155556848,-0.111649975180626,0.123568154871464,0.26919749379158
27.6206905012753,3.53654444072869,-41.9819984639305,43.6792155556848,-0.11190777271986,0.123594328761101,0.26949867606163
27.6206905012753,3.53654444072869,-41.9819984639305,43.6792155556848,-0.112165480852127,0.123619206249714,0.269798189401627
27.6206905012753,3.53654444072869,-41.9819984639305,43.6792155556848,-0.112423107028008,0.123642787337303,0.270096033811569
27.6206905012753,3.53654444072869,-41.9819984639305,43.6792155556848,-0.112680643796921,0.123665072023869,0.270392209291458
27.6206905012753,3.53654444072869,-41.9819984639305,43.6792155556848,-0.112938098609447,0.12368606030941,0.270686715841293
27.6206905012753,3.53654444072869,-41.9819984639305,43.6792155556848,-0.113195464015007,0.123705752193928,0.270979553461075
27.6206905012753,3.53654444072869,-41.9819984639305,43.6792155556848,-0.11345274746418,0.123724155128002,0.271270722150803
27.6206905012753,3.53654444072869,-41.9819984639305,43.6792155556848,-0.113709948956966,0.123741269111633,0.271560221910477
27.6206905012753,3.53654444072869,-41.9819984639305,43.6792155556848,-0.113967061042786,0.123757094144821,0.271848052740097
27.6206905012753,3.53654444072869,-41.9819984639305,43.6792155556848,-0.114224091172218,0.123771630227566,0.272134244441986
27.6206905012753,3.53654444072869,-41.9819984639305,43.6792155556848,-0.114481039345264,0.123784877359867,0.272418767213821
27.6206905012753,3.53654444072869,-41.9819984639305,43.6792155556848,-0.114737905561924,0.123796842992306,0.272701650857925
27.6206905012753,3.53654444072869,-41.9819984639305,43.6792155556848,-0.114994689822197,0.123807527124882,0.272982865571976
27.6206905012753,3.53654444072869,-41.9819984639305,43.6792155556848,-0.115251392126083,0.123816922307014,0.273262441158295
27.6206905012753,3.53654444072869,-41.9819984639305,43.6792155556848,-0.115508012473583,0.123825035989285,0.27354034781456
27.6206905012753,3.53654444072869,-41.9819984639305,43.6792155556848,-0.115764550864697,0.123831868171692,0.273816615343094
27.6206905012753,3.53654444072869,-41.9819984639305,43.6792155556848,-0.116021007299423,0.123837426304817,0.274091243743896
27.6206905012753,3.53654444072869,-41.9819984639305,43.6792155556848,-0.116277381777763,0.12384170293808,0.274364233016968
27.6206905012753,3.53654444072869,-41.9819984639305,43.6792155556848,-0.116533681750298,0.12384470552206,0.274635583162308
27.6206905012753,3.53654444072869,-41.9819984639305,43.6792155556848,-0.116789899766445,0.123846434056759,0.274905294179916
27.6206905012753,3.53654444072869,-41.9819984639305,43.6792155556848,-0.117046035826206,0.123846888542175,0.275173366069794
27.6206905012753,3.53654444072869,-41.9819984639305,43.6792155556848,-0.117302097380161,0.12384606897831,0.27543979883194
27.6206905012753,3.53654444072869,-41.9819984639305,43.6792155556848,-0.11755807697773,0.123843975365162,0.275704592466354
27.6206905012753,3.53654444072869,-41.9819984639305,43.6792155556848,-0.117813974618912,0.123840615153313,0.275967746973038
27.6206905012753,3.53654444072869,-41.9819984639305,43.6792155556848,-0.118069797754288,0.123835980892181,0.276229292154312
27.6206905012753,3.53654444072869,-41.9819984639305,43.6792155556848,-0.118325546383858,0.123830080032349,0.276489198207855
27.6206905012753,3.53654444072869,-41.9819984639305,43.6792155556848,-0.118581213057041,0.123822912573814,0.276747465133667
27.6206905012753,3.53654444072869,-41.9819984639305,43.6792155556848,-0.118836805224419,0.123814478516579,0.27700412273407
27.6206905012753,3.53654444072869,-41.9819984639305,43.6792155556848,-0.11909231543541,0.123804785311222,0.277259171009064
27.6206905012753,3.53654444072869,-41.9819984639305,43.6792155556848,-0.119347751140594,0.123793825507164,0.277512580156326
27.6206905012753,3.53654444072869,-41.9819984639305,43.6792155556848,-0.119603112339973,0.123781606554985,0.27776437997818
27.6206905012753,3.53654444072869,-41.9819984639305,43.6792155556848,-0.119858399033546,0.123768121004105,0.278014570474625
27.6206905012753,3.53654444072869,-41.9819984639305,43.6792155556848,-0.120113611221313,0.123753376305103,0.27826315164566
27.6206905012753,3.53654444072869,-41.9819984639305,43.6792155556848,-0.120368748903275,0.123737379908562,0.278510123491287
27.6206905012753,3.53654444072869,-41.9819984639305,43.6792155556848,-0.12062381207943,0.123720124363899,0.278755486011505
27.6206905012753,3.53654444072869,-41.9819984639305,43.6792155556848,-0.120878800749779,0.123701609671116,0.278999239206314
27.6206905012753,3.53654444072869,-41.9819984639305,43.6792155556848,-0.121133714914322,0.123681843280792,0.279241383075714
27.6206905012753,3.53654444072869,-41.9819984639305,43.6792155556848,-0.121388554573059,0.123660825192928,0.279481917619705
27.6206905012753,3.53654444072869,-41.9819984639305,43.6792155556848,-0.12164331972599,0.123638555407524,0.279720842838287
27.6206905012753,3.53654444072869,-41.9819984639305,43.6792155556848,-0.121898010373116,0.12361503392458,0.279958188533783
27.6206905012753,3.53654444072869,-41.9819984639305,43.6792155556848,-0.122152633965015,0.123590260744095,0.28019392490387
27.6206905012753,3.53654444072869,-41.9819984639305,43.6792155556848,-0.122407183051109,0.12356423586607,0.28042808175087
27.6206905012753,3.53654444072869,-41.9819984639305,43.6792155556848,-0.122661657631397,0.123536966741085,0.280660629272461
27.6206905012753,3.53654444072869,-41.9819984639305,43.6792155556848,-0.12291606515646,0.123508453369141,0.280891597270966
27.6206905012753,3.53654444072869,-41.9819984639305,43.6792155556848,-0.123170398175716,0.123478695750237,0.281120955944061
27.6206905012753,3.53654444072869,-41.9819984639305,43.6792155556848,-0.123424664139748,0.123447693884373,0.28134873509407
27.6206905012753,3.53654444072869,-41.9819984639305,43.6792155556848,-0.123678855597973,0.123415447771549,0.281574934720993
27.6206905012753,3.53654444072869,-41.9819984639305,43.6792155556848,-0.123932980000973,0.123381964862347,0.281799554824829
27.6206905012753,3.53654444072869,-41.9819984639305,43.6792155556848,-0.124187029898167,0.123347237706184,0.282022595405579
27.6206905012753,3.53654444072869,-41.9819984639305,43.6792155556848,-0.124441012740135,0.123311273753643,0.282244056463242
27.6206905012753,3.53654444072869,-41.9819984639305,43.6792155556848,-0.124694928526878,0.123274073004723,0.282463937997818
27.6206905012753,3.53654444072869,-41.9819984639305,43.6792155556848,-0.124948777258396,0.123235635459423,0.282682240009308
27.6206905012753,3.53654444072869,-41.9819984639305,43.6792155556848,-0.125202551484108,0.123195961117744,0.282898962497711
27.6206905012753,3.53654444072869,-41.9819984639305,43.6792155556848,-0.125456258654594,0.123155057430267,0.283114105463028
27.6206905012753,3.53654444072869,-41.9819984639305,43.6792155556848,-0.125709906220436,0.123112916946411,0.283327698707581
27.6206905012753,3.53654444072869,-41.9819984639305,43.6792155556848,-0.125963479280472,0.123069547116756,0.283539712429047
27.6206905012753,3.53654444072869,-41.9819984639305,43.6792155556848,-0.126216992735863,0.123024947941303,0.283750176429749
27.6206905012753,3.53654444072869,-41.9819984639305,43.6792155556848,-0.126470431685448,0.122979119420052,0.283959060907364
27.6206905012753,3.53654444072869,-41.9819984639305,43.6792155556848,-0.126723811030388,0.122932061553001,0.284166395664215
27.6206905012753,3.53654444072869,-41.9819984639305,43.6792155556848,-0.126977115869522,0.122883774340153,0.28437215089798
27.6206905012753,3.53654444072869,-41.9819984639305,43.6792155556848,-0.127230361104012,0.122834265232086,0.28457635641098
27.6206905012753,3.53654444072869,-41.9819984639305,43.6792155556848,-0.127483531832695,0.122783534228802,0.284779012203217
27.6206905012753,3.53654444072869,-41.9819984639305,43.6792155556848,-0.127736642956734,0.122731581330299,0.284980118274689
27.6206905012753,3.53654444072869,-41.9819984639305,43.6792155556848,-0.127989694476128,0.122678406536579,0.285179674625397
27.6206905012753,3.53654444072869,-41.9819984639305,43.6792155556848,-0.128242671489716,0.122624009847641,0.285377681255341
27.6206905012753,3.53654444072869,-41.9819984639305,43.6792155556848,-0.128495588898659,0.122568391263485,0.28557413816452
27.6206905012753,3.53654444072869,-41.9819984639305,43.6792155556848,-0.128748446702957,0.122511558234692,0.285769045352936
27.6206905012753,3.53654444072869,-41.9819984639305,43.6792155556848,-0.129001244902611,0.12245350331068,0.285962402820587
27.6206905012753,3.53654444072869,-41.9819984639305,43.6792155556848,-0.129253968596458,0.122394233942032,0.286154210567474
27.6206905012753,3.53654444072869,-41.9819984639305,43.6792155556848,-0.129506632685661,0.122333750128746,0.28634449839592
27.6206905012753,3.53654444072869,-41.9819984639305,43.6792155556848,-0.129759237170219,0.122272051870823,0.286533236503601
27.6206905012753,3.53654444072869,-41.9819984639305,43.6792155556848,-0.130011782050133,0.122209146618843,0.286720454692841
27.6206905012753,3.53654444072869,-41.9819984639305,43.6792155556848,-0.130264267325401,0.122145026922226,0.286906123161316
27.6206905012753,3.53654444072869,-41.9819984639305,43.6792155556848,-0.130516678094864,0.122079700231552,0.287090271711349
27.6206905012753,3.53654444072869,-41.9819984639305,43.6792155556848,-0.130769029259682,0.122013166546822,0.287272870540619
27.6206905012753,3.53654444072869,-41.9819984639305,43.6792155556848,-0.131021320819855,0.121945425868034,0.287453949451447
27.6206905012753,3.53654444072869,-41.9819984639305,43.6792155556848,-0.131273552775383,0.12187647819519,0.287633508443832
27.6206905012753,3.53654444072869,-41.9819984639305,43.6792155556848,-0.131525725126266,0.12180632352829,0.287811547517776
27.6206905012753,3.53654444072869,-41.9819984639305,43.6792155556848,-0.131777837872505,0.121734961867332,0.287988066673279
27.6206905012753,3.53654444072869,-41.9819984639305,43.6792155556848,-0.132029891014099,0.121662400662899,0.288163065910339
27.6206905012753,3.53654444072869,-41.9819984639305,43.6792155556848,-0.132281884551048,0.121588639914989,0.288336545228958
27.6206905012753,3.53654444072869,-41.9819984639305,43.6792155556848,-0.132533818483353,0.121513679623604,0.288508504629135
27.6206905012753,3.53654444072869,-41.9819984639305,43.6792155556848,-0.132785692811012,0.121437519788742,0.28867894411087
27.6206905012753,3.53654444072869,-41.9819984639305,43.6792155556848,-0.133037522435188,0.121360160410404,0.288847863674164
27.6206905012753,3.53654444072869,-41.9819984639305,43.6792155556848,-0.13328929245472,0.12128160148859,0.289015293121338
27.6206905012753,3.53654444072869,-41.9819984639305,43.6792155556848,-0.133541002869606,0.121201850473881,0.28918120265007
27.6206905012753,3.53654444072869,-41.9819984639305,43.6792155556848,-0.133792653679848,0.121120907366276,0.289345592260361
27.6206905012753,3.53654444072869,-41.9819984639305,43.6792155556848,-0.134044244885445,0.121038772165775,0.289508491754532
27.6206905012753,3.53654444072869,-41.9819984639305,43.6792155556848,-0.134295776486397,0.120955444872379,0.289669871330261
27.6206905012753,3.53654444072869,-41.9819984639305,43.6792155556848,-0.134547263383865,0.120870925486088,0.289829760789871
27.6206905012753,3.53654444072869,-41.9819984639305,43.6792155556848,-0.134798690676689,0.120785214006901,0.289988160133362
27.6206905012753,3.53654444072869,-41.9819984639305,43.6792155556848,-0.135050058364868,0.120698317885399,0.290145069360733
27.6206905012753,3.53654444072869,-41.9819984639305,43.6792155556848,-0.135301381349564,0.120610229671001,0.290300458669662
27.6206905012753,3.53654444072869,-41.9819984639305,43.6792155556848,-0.135552644729614,0.120520956814289,0.290454357862473
27.6206905012753,3.53654444072869,-41.9819984639305,43.6792155556848,-0.13580384850502,0.120430499315262,0.290606766939163
27.6206905012753,3.53654444072869,-41.9819984639305,43.6792155556848,-0.136055007576942,0.12033885717392,0.290757685899735
27.6206905012753,3.53654444072869,-41.9819984639305,43.6792155556848,-0.13630610704422,0.120246037840843,0.290907114744186
27.6206905012753,3.53654444072869,-41.9819984639305,43.6792155556848,-0.136557146906853,0.120152033865452,0.291055083274841
27.6206905012753,3.53654444072869,-41.9819984639305,43.6792155556848,-0.136808142066002,0.120056852698326,0.291201561689377
27.6206905012753,3.53654444072869,-41.9819984639305,43.6792155556848,-0.137059077620506,0.119960494339466,0.291346549987793
27.6206905012753,3.53654444072869,-41.9819984639305,43.6792155556848,-0.137309968471527,0.119862958788872,0.29149004817009
27.6206905012753,3.53654444072869,-41.9819984639305,43.6792155556848,-0.137560799717903,0.119764246046543,0.291632086038589
27.6206905012753,3.53654444072869,-41.9819984639305,43.6792155556848,-0.137811586260796,0.11966435611248,0.29177263379097
27.6206905012753,3.53654444072869,-41.9819984639305,43.6792155556848,-0.138062313199043,0.119563296437263,0.291911721229553
27.6206905012753,3.53654444072869,-41.9819984639305,43.6792155556848,-0.138312995433807,0.119461059570313,0.292049318552017
27.6206905012753,3.53654444072869,-41.9819984639305,43.6792155556848,-0.138563632965088,0.119357652962208,0.292185455560684
27.6206905012753,3.53654444072869,-41.9819984639305,43.6792155556848,-0.138814210891724,0.119253076612949,0.292320132255554
27.6206905012753,3.53654444072869,-41.9819984639305,43.6792155556848,-0.139064744114876,0.119147330522537,0.292453348636627
27.6206905012753,3.53654444072869,-41.9819984639305,43.6792155556848,-0.139315217733383,0.119040414690971,0.292585074901581
27.6206905012753,3.53654444072869,-41.9819984639305,43.6792155556848,-0.139565646648407,0.118932329118252,0.292715340852737
27.6206905012753,3.53654444072869,-41.9819984639305,43.6792155556848,-0.139816030859947,0.118823081254959,0.292844146490097
27.6206905012753,3.53654444072869,-41.9819984639305,43.6792155556848,-0.140066370368004,0.118712671101093,0.29297149181366
27.6206905012753,3.53654444072869,-41.9819984639305,43.6792155556848,-0.140316650271416,0.118601098656654,0.293097406625748
27.6206905012753,3.53654444072869,-41.9819984639305,43.6792155556848,-0.140566885471344,0.118488363921642,0.293221861124039
27.6206905012753,3.53654444072869,-41.9819984639305,43.6792155556848,-0.140817075967789,0.118374466896057,0.293344855308533
27.6206905012753,3.53654444072869,-41.9819984639305,43.6792155556848,-0.14106722176075,0.118259407579899,0.29346638917923
27.6206905012753,3.53654444072869,-41.9819984639305,43.6792155556848,-0.141317322850227,0.118143193423748,0.293586492538452
27.6206905012753,3.53654444072869,-41.9819984639305,43.6792155556848,-0.14156736433506,0.118025816977024,0.293705135583878
27.6206905012753,3.53654444072869,-41.9819984639305,43.6792155556848,-0.141817361116409,0.117907285690308,0.293822348117828
27.6206905012753,3.53654444072869,-41.9819984639305,43.6792155556848,-0.142067313194275,0.117787599563599,0.293938100337982
27.6206905012753,3.53654444072869,-41.9819984639305,43.6792155556848,-0.142317220568657,0.117666758596897,0.294052422046661
27.6206905012753,3.53654444072869,-41.9819984639305,43.6792155556848,-0.142567083239555,0.117544762790203,0.294165283441544
27.6206905012753,3.53654444072869,-41.9819984639305,43.6792155556848,-0.14281690120697,0.117421619594097,0.294276714324951
27.6206905012753,3.53654444072869,-41.9819984639305,43.6792155556848,-0.143066674470901,0.117297321557999,0.294386714696884
27.6206905012753,3.53654444072869,-41.9819984639305,43.6792155556848,-0.143316403031349,0.117171876132488,0.294495284557343
27.6206905012753,3.53654444072869,-41.9819984639305,43.6792155556848,-0.143566086888313,0.117045283317566,0.294602423906326
27.6206905012753,3.53654444072869,-41.9819984639305,43.6792155556848,-0.143815726041794,0.116917543113232,0.294708132743835
27.6206905012753,3.53654444072869,-41.9819984639305,43.6792155556848,-0.144065320491791,0.116788655519485,0.29481241106987
27.6206905012753,3.53654444072869,-41.9819984639305,43.6792155556848,-0.144314870238304,0.116658627986908,0.29491525888443
27.6206905012753,3.53654444072869,-41.9819984639305,43.6792155556848,-0.144564375281334,0.116527453064919,0.295016676187515
27.6206905012753,3.53654444072869,-41.9819984639305,43.6792155556848,-0.14481383562088,0.116395138204098,0.295116662979126
27.6206905012753,3.53654444072869,-41.9819984639305,43.6792155556848,-0.145063266158104,0.116261683404446,0.295215249061584
27.6206905012753,3.53654444072869,-41.9819984639305,43.6792155556848,-0.145312651991844,0.116127088665962,0.295312404632568
27.6206905012753,3.53654444072869,-41.9819984639305,43.6792155556848,-0.145561993122101,0.115991353988647,0.2954081594944
27.6206905012753,3.53654444072869,-41.9819984639305,43.6792155556848,-0.145811289548874,0.115854479372501,0.295502483844757
27.6206905012753,3.53654444072869,-41.9819984639305,43.6792155556848,-0.146060541272163,0.115716472268105,0.295595407485962
27.6206905012753,3.53654444072869,-41.9819984639305,43.6792155556848,-0.14630976319313,0.115577325224876,0.295686900615692
27.6206905012753,3.53654444072869,-41.9819984639305,43.6792155556848,-0.146558940410614,0.115437045693398,0.29577699303627
27.6206905012753,3.53654444072869,-41.9819984639305,43.6792155556848,-0.146808072924614,0.115295633673668,0.295865684747696
27.6206905012753,3.53654444072869,-41.9819984639305,43.6792155556848,-0.147057175636292,0.115153089165688,0.295952975749969
27.6206905012753,3.53654444072869,-41.9819984639305,43.6792155556848,-0.147306233644485,0.115009412169456,0.296038836240768
27.6206905012753,3.53654444072869,-41.9819984639305,43.6792155556848,-0.147555246949196,0.114864610135555,0.296123296022415
27.6206905012753,3.53654444072869,-41.9819984639305,43.6792155556848,-0.147804230451584,0.114718675613403,0.29620635509491
27.6206905012753,3.53654444072869,-41.9819984639305,43.6792155556848,-0.148053169250488,0.114571616053581,0.296288013458252
27.6206905012753,3.53654444072869,-41.9819984639305,43.6792155556848,-0.14830207824707,0.114423431456089,0.296368300914764
27.6206905012753,3.53654444072869,-41.9819984639305,43.6792155556848,-0.148550942540169,0.114274121820927,0.296447187662125
27.6206905012753,3.53654444072869,-41.9819984639305,43.6792155556848,-0.148799762129784,0.114123687148094,0.296524673700333
27.6206905012753,3.53654444072869,-41.9819984639305,43.6792155556848,-0.149048551917076,0.113972127437592,0.296600759029388
27.6206905012753,3.53654444072869,-41.9819984639305,43.6792155556848,-0.149297297000885,0.113819450139999,0.296675473451614
27.6206905012753,3.53654444072869,-41.9819984639305,43.6792155556848,-0.149546012282372,0.113665647804737,0.296748787164688
27.6206905012753,3.53654444072869,-41.9819984639305,43.6792155556848,-0.149794697761536,0.113510727882385,0.296820729970932
27.6206905012753,3.53654444072869,-41.9819984639305,43.6792155556848,-0.150043338537216,0.113354690372944,0.296891272068024
27.6206905012753,3.53654444072869,-41.9819984639305,43.6792155556848,-0.150291949510574,0.113197535276413,0.296960443258286
27.6206905012753,3.53654444072869,-41.9819984639305,43.6792155556848,-0.150540515780449,0.113039262592793,0.297028243541718
27.6206905012753,3.53654444072869,-41.9819984639305,43.6792155556848,-0.150789052248001,0.112879879772663,0.297094643115997
27.6206905012753,3.53654444072869,-41.9819984639305,43.6792155556848,-0.151037558913231,0.112719379365444,0.297159671783447
27.6206905012753,3.53654444072869,-41.9819984639305,43.6792155556848,-0.151286020874977,0.112557768821716,0.297223329544067
27.6206905012753,3.53654444072869,-41.9819984639305,43.6792155556848,-0.151534453034401,0.112395048141479,0.297285616397858
27.6206905012753,3.53654444072869,-41.9819984639305,43.6792155556848,-0.151782855391502,0.112231217324734,0.297346532344818
27.6206905012753,3.53654444072869,-41.9819984639305,43.6792155556848,-0.15203121304512,0.112066276371479,0.297406077384949
27.6206905012753,3.53654444072869,-41.9819984639305,43.6792155556848,-0.152279540896416,0.111900225281715,0.29746425151825
27.6206905012753,3.53654444072869,-41.9819984639305,43.6792155556848,-0.152527838945389,0.111733071506023,0.29752105474472
27.6206905012753,3.53654444072869,-41.9819984639305,43.6792155556848,-0.152776107192039,0.111564807593822,0.297576516866684
27.6206905012753,3.53654444072869,-41.9819984639305,43.6792155556848,-0.153024345636368,0.111395440995693,0.297630608081818
27.6206905012753,3.53654444072869,-41.9819984639305,43.6792155556848,-0.153272554278374,0.111224971711636,0.297683328390121
27.6206905012753,3.53654444072869,-41.9819984639305,43.6792155556848,-0.153520718216896,0.11105339974165,0.297734707593918
27.6206905012753,3.53654444072869,-41.9819984639305,43.6792155556848,-0.153768852353096,0.110880725085735,0.297784715890884
27.6206905012753,3.53654444072869,-41.9819984639305,43.6792155556848,-0.154016956686974,0.110706955194473,0.297833383083344
27.6206905012753,3.53654444072869,-41.9819984639305,43.6792155556848,-0.154265031218529,0.110532082617283,0.297880709171295
27.6206905012753,3.53654444072869,-41.9819984639305,43.6792155556848,-0.154513075947762,0.110356114804745,0.297926664352417
27.6206905012753,3.53654444072869,-41.9819984639305,43.6792155556848,-0.154761090874672,0.110179051756859,0.297971278429031
27.6206905012753,3.53654444072869,-41.9819984639305,43.6792155556848,-0.15500907599926,0.110000893473625,0.298014551401138
27.6206905012753,3.53654444072869,-41.9819984639305,43.6792155556848,-0.155257031321526,0.109821639955044,0.298056483268738
27.6206905012753,3.53654444072869,-41.9819984639305,43.6792155556848,-0.155504956841469,0.109641291201115,0.29809707403183
27.6206905012753,3.53654444072869,-41.9819984639305,43.6792155556848,-0.15575285255909,0.109459854662418,0.298136323690414
27.6206905012753,3.53654444072869,-41.9819984639305,43.6792155556848,-0.156000718474388,0.109277322888374,0.298174232244492
27.6206905012753,3.53654444072869,-41.9819984639305,43.6792155556848,-0.156248554587364,0.109093703329563,0.298210799694061
27.6206905012753,3.53654444072869,-41.9819984639305,43.6792155556848,-0.156496360898018,0.108908995985985,0.298246026039124
27.6206905012753,3.53654444072869,-41.9819984639305,43.6792155556848,-0.15674415230751,0.108723200857639,0.298279911279678
27.6206905012753,3.53654444072869,-41.9819984639305,43.6792155556848,-0.15699191391468,0.108536317944527,0.298312455415726
27.6206905012753,3.53654444072869,-41.9819984639305,43.6792155556848,-0.157239645719528,0.108348354697227,0.298343688249588
27.6206905012753,3.53654444072869,-41.9819984639305,43.6792155556848,-0.157487347722054,0.108159303665161,0.298373579978943
27.6206905012753,3.53654444072869,-41.9819984639305,43.6792155556848,-0.157735019922256,0.107969172298908,0.298402160406113
27.6206905012753,3.53654444072869,-41.9819984639305,43.6792155556848,-0.157982662320137,0.107777960598469,0.298429399728775
27.6206905012753,3.53654444072869,-41.9819984639305,43.6792155556848,-0.158230289816856,0.107585668563843,0.298455327749252
27.6206905012753,3.53654444072869,-41.9819984639305,43.6792155556848,-0.158477887511253,0.10739229619503,0.298479914665222
27.6206905012753,3.53654444072869,-41.9819984639305,43.6792155556848,-0.158725455403328,0.107197843492031,0.298503190279007
27.6206905012753,3.53654444072869,-41.9819984639305,43.6792155556848,-0.158973008394241,0.107002317905426,0.298525154590607
27.6206905012753,3.53654444072869,-41.9819984639305,43.6792155556848,-0.159220531582832,0.106805711984634,0.298545807600021
27.6206905012753,3.53654444072869,-41.9819984639305,43.6792155556848,-0.159468024969101,0.106608033180237,0.298565149307251
27.6206905012753,3.53654444072869,-41.9819984639305,43.6792155556848,-0.159715503454208,0.106409281492233,0.298583179712296
27.6206905012753,3.53654444072869,-41.9819984639305,43.6792155556848,-0.159962952136993,0.106209456920624,0.298599898815155
27.6206905012753,3.53654444072869,-41.9819984639305,43.6792155556848,-0.160210371017456,0.106008559465408,0.298615306615829
27.6206905012753,3.53654444072869,-41.9819984639305,43.6792155556848,-0.160457774996758,0.105806589126587,0.298629403114319
27.6206905012753,3.53654444072869,-41.9819984639305,43.6792155556848,-0.160705149173737,0.10560355335474,0.298642188310623
27.6206905012753,3.53654444072869,-41.9819984639305,43.6792155556848,-0.160952508449554,0.105399444699287,0.298653662204742
27.6206905012753,3.53654444072869,-41.9819984639305,43.6792155556848,-0.16119983792305,0.105194270610809,0.298663854598999
27.6206905012753,3.53654444072869,-41.9819984639305,43.6792155556848,-0.161447152495384,0.104988031089306,0.298672735691071
27.6206905012753,3.53654444072869,-41.9819984639305,43.6792155556848,-0.161694437265396,0.104780726134777,0.298680335283279
27.6206905012753,3.53654444072869,-41.9819984639305,43.6792155556848,-0.161941707134247,0.104572355747223,0.298686623573303
27.6206905012753,3.53654444072869,-41.9819984639305,43.6792155556848,-0.162188962101936,0.104362927377224,0.298691630363464
27.6206905012753,3.53654444072869,-41.9819984639305,43.6792155556848,-0.162436187267303,0.1041524335742,0.29869532585144
27.6206905012753,3.53654444072869,-41.9819984639305,43.6792155556848,-0.162683397531509,0.103940881788731,0.298697739839554
27.6206905012753,3.53654444072869,-41.9819984639305,43.6792155556848,-0.162930577993393,0.103728272020817,0.298698872327805
27.6206905012753,3.53654444072869,-41.9819984639305,43.6792155556848,-0.163177743554115,0.103514604270458,0.298698723316193
27.6206905012753,3.53654444072869,-41.9819984639305,43.6792155556848,-0.163424894213676,0.103299878537655,0.298697263002396
27.6206905012753,3.53654444072869,-41.9819984639305,43.6792155556848,-0.163672015070915,0.103084094822407,0.298694521188736
27.6206905012753,3.53654444072869,-41.9819984639305,43.6792155556848,-0.163919121026993,0.102867260575294,0.298690497875214
27.6206905012753,3.53654444072869,-41.9819984639305,43.6792155556848,-0.164166212081909,0.102649368345737,0.298685193061829
27.6206905012753,3.53654444072869,-41.9819984639305,43.6792155556848,-0.164413288235664,0.102430425584316,0.298678606748581
27.6206905012753,3.53654444072869,-41.9819984639305,43.6792155556848,-0.164660334587097,0.102210432291031,0.298670768737793
27.6206905012753,3.53654444072869,-41.9819984639305,43.6792155556848,-0.164907366037369,0.101989388465881,0.298661649227142
27.6206905012753,3.53654444072869,-41.9819984639305,43.6792155556848,-0.165154382586479,0.101767294108868,0.298651248216629
27.6206905012753,3.53654444072869,-41.9819984639305,43.6792155556848,-0.165401384234428,0.10154414921999,0.298639595508575
27.6206905012753,3.53654444072869,-41.9819984639305,43.6792155556848,-0.165648370981216,0.101319961249828,0.298626661300659
27.6206905012753,3.53654444072869,-41.9819984639305,43.6792155556848,-0.165895342826843,0.101094722747803,0.29861244559288
27.6206905012753,3.53654444072869,-41.9819984639305,43.6792155556848,-0.166142284870148,0.100868441164494,0.298596978187561
27.6206905012753,3.53654444072869,-41.9819984639305,43.6792155556848,-0.166389212012291,0.100641116499901,0.298580259084702
27.6206905012753,3.53654444072869,-41.9819984639305,43.6792155556848,-0.166636124253273,0.100412748754025,0.298562258481979
27.6206905012753,3.53654444072869,-41.9819984639305,43.6792155556848,-0.166883021593094,0.100183337926865,0.298543006181717
27.6206905012753,3.53654444072869,-41.9819984639305,43.6792155556848,-0.167129904031754,0.0999528914690018,0.298522502183914
27.6206905012753,3.53654444072869,-41.9819984639305,43.6792155556848,-0.167376771569252,0.0997214019298553,0.298500716686249
27.6206905012753,3.53654444072869,-41.9819984639305,43.6792155556848,-0.167623624205589,0.099488876760006,0.298477679491043
27.6206905012753,3.53654444072869,-41.9819984639305,43.6792155556848,-0.167870461940765,0.0992553159594536,0.298453390598297
27.6206905012753,3.53654444072869,-41.9819984639305,43.6792155556848,-0.16811728477478,0.0990207195281982,0.298427850008011
27.6206905012753,3.53654444072869,-41.9819984639305,43.6792155556848,-0.168364092707634,0.0987850874662399,0.298401057720184
27.6206905012753,3.53654444072869,-41.9819984639305,43.6792155556848,-0.168610885739326,0.0985484197735786,0.298373013734818
27.6206905012753,3.53654444072869,-41.9819984639305,43.6792155556848,-0.168857678771019,0.0983107164502144,0.298343747854233
27.6206905012753,3.53654444072869,-41.9819984639305,43.6792155556848,-0.16910445690155,0.0980719849467278,0.298313230276108
27.6206905012753,3.53654444072869,-41.9819984639305,43.6792155556848,-0.16935122013092,0.0978322252631187,0.298281461000443
27.6206905012753,3.53654444072869,-41.9819984639305,43.6792155556848,-0.169597968459129,0.0975914299488068,0.298248469829559
27.6206905012753,3.53654444072869,-41.9819984639305,43.6792155556848,-0.169844701886177,0.0973496064543724,0.298214226961136
27.6206905012753,3.53654444072869,-41.9819984639305,43.6792155556848,-0.170091420412064,0.0971067622303963,0.298178732395172
27.6206905012753,3.53654444072869,-41.9819984639305,43.6792155556848,-0.17033813893795,0.0968628898262978,0.29814201593399
27.6206905012753,3.53654444072869,-41.9819984639305,43.6792155556848,-0.170584842562675,0.0966179892420769,0.298104077577591
27.6206905012753,3.53654444072869,-41.9819984639305,43.6792155556848,-0.17083153128624,0.0963720679283142,0.298064887523651
27.6206905012753,3.53654444072869,-41.9819984639305,43.6792155556848,-0.171078205108643,0.0961251258850098,0.298024475574493
27.6206905012753,3.53654444072869,-41.9819984639305,43.6792155556848,-0.171324878931046,0.0958771556615829,0.297982841730118
27.6206905012753,3.53654444072869,-41.9819984639305,43.6792155556848,-0.171571537852287,0.0956281647086143,0.297939956188202
27.6206905012753,3.53654444072869,-41.9819984639305,43.6792155556848,-0.171818181872368,0.0953781604766846,0.297895848751068
27.6206905012753,3.53654444072869,-41.9819984639305,43.6792155556848,-0.172064825892448,0.095127135515213,0.297850519418716
27.6206905012753,3.53654444072869,-41.9819984639305,43.6792155556848,-0.172311455011368,0.0948750898241997,0.297803968191147
27.6206905012753,3.53654444072869,-41.9819984639305,43.6792155556848,-0.172558069229126,0.0946220308542252,0.297756195068359
27.6206905012753,3.53654444072869,-41.9819984639305,43.6792155556848,-0.172804683446884,0.0943679586052895,0.297707200050354
27.6206905012753,3.53654444072869,-41.9819984639305,43.6792155556848,-0.173051282763481,0.0941128730773926,0.297657012939453
27.6206905012753,3.53654444072869,-41.9819984639305,43.6792155556848,-0.173297882080078,0.0938567742705345,0.297605603933334
27.6206905012753,3.53654444072869,-41.9819984639305,43.6792155556848,-0.173544466495514,0.0935996621847153,0.297552973031998
27.6206905012753,3.53654444072869,-41.9819984639305,43.6792155556848,-0.17379105091095,0.0933415368199348,0.297499150037766
27.6206905012753,3.53654444072869,-41.9819984639305,43.6792155556848,-0.174037620425224,0.0930824056267738,0.297444105148315
27.6206905012753,3.53654444072869,-41.9819984639305,43.6792155556848,-0.174284189939499,0.0928222611546516,0.297387838363647
27.6206905012753,3.53654444072869,-41.9819984639305,43.6792155556848,-0.174530744552612,0.0925611108541489,0.297330379486084
27.6206905012753,3.53654444072869,-41.9819984639305,43.6792155556848,-0.174777299165726,0.0922989547252655,0.297271728515625
27.6206905012753,3.53654444072869,-41.9819984639305,43.6792155556848,-0.175023838877678,0.0920357927680016,0.297211855649948
27.6206905012753,3.53654444072869,-41.9819984639305,43.6792155556848,-0.17527037858963,0.091771624982357,0.297150790691376
27.6206905012753,3.53654444072869,-41.9819984639305,43.6792155556848,-0.175516918301582,0.0915064513683319,0.297088533639908
27.6206905012753,3.53654444072869,-41.9819984639305,43.6792155556848,-0.175763443112373,0.0912402793765068,0.297025054693222
27.6206905012753,3.53654444072869,-41.9819984639305,43.6792155556848,-0.176009967923164,0.0909731090068817,0.296960383653641
27.6206905012753,3.53654444072869,-41.9819984639305,43.6792155556848,-0.176256492733955,0.090704932808876,0.296894520521164
27.6206905012753,3.53654444072869,-41.9819984639305,43.6792155556848,-0.176503002643585,0.0904357582330704,0.296827465295792
27.6206905012753,3.53654444072869,-41.9819984639305,43.6792155556848,-0.176749512553215,0.0901655852794647,0.296759217977524
27.6206905012753,3.53654444072869,-41.9819984639305,43.6792155556848,-0.176996022462845,0.0898944213986397,0.29668977856636
27.6206905012753,3.53654444072869,-41.9819984639305,43.6792155556848,-0.177242532372475,0.0896222591400146,0.296619176864624
27.6206905012753,3.53654444072869,-41.9819984639305,43.6792155556848,-0.177489027380943,0.0893490985035896,0.296547383069992
27.6206905012753,3.53654444072869,-41.9819984639305,43.6792155556848,-0.177735522389412,0.0890749469399452,0.296474397182465
27.6206905012753,3.53654444072869,-41.9819984639305,43.6792155556848,-0.177982017397881,0.0887998044490814,0.296400219202042
27.6206905012753,3.53654444072869,-41.9819984639305,43.6792155556848,-0.178228512406349,0.0885236710309982,0.296324878931046
27.6206905012753,3.53654444072869,-41.9819984639305,43.6792155556848,-0.178475007414818,0.0882465466856956,0.296248346567154
27.6206905012753,3.53654444072869,-41.9819984639305,43.6792155556848,-0.178721487522125,0.0879684314131737,0.296170651912689
27.6206905012753,3.53654444072869,-41.9819984639305,43.6792155556848,-0.178967967629433,0.0876893252134323,0.296091765165329
27.6206905012753,3.53654444072869,-41.9819984639305,43.6792155556848,-0.17921444773674,0.0874092355370522,0.296011716127396
27.6206905012753,3.53654444072869,-41.9819984639305,43.6792155556848,-0.179460927844048,0.0871281623840332,0.295930504798889
27.6206905012753,3.53654444072869,-41.9819984639305,43.6792155556848,-0.179707407951355,0.0868460983037949,0.295848101377487
27.6206905012753,3.53654444072869,-41.9819984639305,43.6792155556848,-0.179953888058662,0.0865630507469177,0.295764535665512
27.6206905012753,3.53654444072869,-41.9819984639305,43.6792155556848,-0.18020036816597,0.0862790197134018,0.295679807662964
27.6206905012753,3.53654444072869,-41.9819984639305,43.6792155556848,-0.180446848273277,0.0859940126538277,0.295593917369843
27.6206905012753,3.53654444072869,-41.9819984639305,43.6792155556848,-0.180693328380585,0.0857080221176147,0.295506864786148
27.6206905012753,3.53654444072869,-41.9819984639305,43.6792155556848,-0.180939808487892,0.0854210555553436,0.29541864991188
27.6206905012753,3.53654444072869,-41.9819984639305,43.6792155556848,-0.1811862885952,0.0851331055164337,0.29532927274704
27.6206905012753,3.53654444072869,-41.9819984639305,43.6792155556848,-0.181432768702507,0.0848441794514656,0.295238733291626
27.6206905012753,3.53654444072869,-41.9819984639305,43.6792155556848,-0.181679248809814,0.0845542773604393,0.295147031545639
27.6206905012753,3.53654444072869,-41.9819984639305,43.6792155556848,-0.181925728917122,0.0842633992433548,0.295054197311401
27.6206905012753,3.53654444072869,-41.9819984639305,43.6792155556848,-0.182172223925591,0.0839715451002121,0.294960200786591
27.6206905012753,3.53654444072869,-41.9819984639305,43.6792155556848,-0.182418718934059,0.0836787223815918,0.294865041971207
27.6206905012753,3.53654444072869,-41.9819984639305,43.6792155556848,-0.182665213942528,0.0833849236369133,0.294768750667572
27.6206905012753,3.53654444072869,-41.9819984639305,43.6792155556848,-0.182911708950996,0.0830901563167572,0.294671297073364
27.6206905012753,3.53654444072869,-41.9819984639305,43.6792155556848,-0.183158203959465,0.0827944204211235,0.294572710990906
27.6206905012753,3.53654444072869,-41.9819984639305,43.6792155556848,-0.183404698967934,0.0824977159500122,0.294472962617874
27.6206905012753,3.53654444072869,-41.9819984639305,43.6792155556848,-0.183651208877563,0.0822000429034233,0.294372081756592
27.6206905012753,3.53654444072869,-41.9819984639305,43.6792155556848,-0.183897718787193,0.0819014012813568,0.294270068407059
27.6206905012753,3.53654444072869,-41.9819984639305,43.6792155556848,-0.184144228696823,0.0816017910838127,0.294166892766953
27.6206905012753,3.53654444072869,-41.9819984639305,43.6792155556848,-0.184390738606453,0.0813012197613716,0.294062584638596
27.6206905012753,3.53654444072869,-41.9819984639305,43.6792155556848,-0.184637263417244,0.0809996798634529,0.293957144021988
27.6206905012753,3.53654444072869,-41.9819984639305,43.6792155556848,-0.184883788228035,0.0806971788406372,0.29385057091713
27.6206905012753,3.53654444072869,-41.9819984639305,43.6792155556848,-0.185130313038826,0.0803937166929245,0.29374286532402
27.6206905012753,3.53654444072869,-41.9819984639305,43.6792155556848,-0.185376852750778,0.0800892934203148,0.293634027242661
27.6206905012753,3.53654444072869,-41.9819984639305,43.6792155556848,-0.18562339246273,0.0797839090228081,0.29352405667305
27.6206905012753,3.53654444072869,-41.9819984639305,43.6792155556848,-0.185869947075844,0.079477570950985,0.293412953615189
27.6206905012753,3.53654444072869,-41.9819984639305,43.6792155556848,-0.186116501688957,0.0791702717542648,0.293300747871399
27.6206905012753,3.53654444072869,-41.9819984639305,43.6792155556848,-0.186363056302071,0.0788620188832283,0.293187409639359
27.6206905012753,3.53654444072869,-41.9819984639305,43.6792155556848,-0.186609625816345,0.0785528123378754,0.293072938919067
27.6206905012753,3.53654444072869,-41.9819984639305,43.6792155556848,-0.18685619533062,0.078242652118206,0.292957365512848
27.6206905012753,3.53654444072869,-41.9819984639305,43.6792155556848,-0.187102779746056,0.0779315382242203,0.292840659618378
27.6206905012753,3.53654444072869,-41.9819984639305,43.6792155556848,-0.187349364161491,0.0776194706559181,0.292722821235657
27.6206905012753,3.53654444072869,-41.9819984639305,43.6792155556848,-0.187595963478088,0.0773064494132996,0.292603880167007
27.6206905012753,3.53654444072869,-41.9819984639305,43.6792155556848,-0.187842562794685,0.0769924819469452,0.29248383641243
27.6206905012753,3.53654444072869,-41.9819984639305,43.6792155556848,-0.188089177012444,0.0766775608062744,0.292362660169601
27.6206905012753,3.53654444072869,-41.9819984639305,43.6792155556848,-0.188335806131363,0.0763616934418678,0.292240381240845
27.6206905012753,3.53654444072869,-41.9819984639305,43.6792155556848,-0.188582435250282,0.0760448798537254,0.29211699962616
27.6206905012753,3.53654444072869,-41.9819984639305,43.6792155556848,-0.188829079270363,0.0757271200418472,0.291992515325546
27.6206905012753,3.53654444072869,-41.9819984639305,43.6792155556848,-0.189075723290443,0.0754084140062332,0.291866898536682
27.6206905012753,3.53654444072869,-41.9819984639305,43.6792155556848,-0.189322382211685,0.075088769197464,0.29174017906189
27.6206905012753,3.53654444072869,-41.9819984639305,43.6792155556848,-0.189569056034088,0.074768178164959,0.291612356901169
27.6206905012753,3.53654444072869,-41.9819984639305,43.6792155556848,-0.189815729856491,0.0744466483592987,0.29148343205452
27.6206905012753,3.53654444072869,-41.9819984639305,43.6792155556848,-0.190062418580055,0.0741241797804832,0.291353434324265
27.6206905012753,3.53654444072869,-41.9819984639305,43.6792155556848,-0.190309122204781,0.073800764977932,0.291222333908081
27.6206905012753,3.53654444072869,-41.9819984639305,43.6792155556848,-0.190555840730667,0.0734764114022255,0.291090130805969
27.6206905012753,3.53654444072869,-41.9819984639305,43.6792155556848,-0.190802559256554,0.0731511265039444,0.290956825017929
27.6206905012753,3.53654444072869,-41.9819984639305,43.6792155556848,-0.191049292683601,0.0728249028325081,0.290822446346283
27.6206905012753,3.53654444072869,-41.9819984639305,43.6792155556848,-0.19129604101181,0.0724977403879166,0.290686964988709
27.6206905012753,3.53654444072869,-41.9819984639305,43.6792155556848,-0.19154280424118,0.0721696466207504,0.290550380945206
27.6206905012753,3.53654444072869,-41.9819984639305,43.6792155556848,-0.191789567470551,0.0718406215310097,0.290412724018097
27.6206905012753,3.53654444072869,-41.9819984639305,43.6792155556848,-0.192036345601082,0.0715106651186943,0.29027396440506
27.6206905012753,3.53654444072869,-41.9819984639305,43.6792155556848,-0.192283138632774,0.0711797773838043,0.290134131908417
27.6206905012753,3.53654444072869,-41.9819984639305,43.6792155556848,-0.192529946565628,0.0708479583263397,0.289993226528168
27.6206905012753,3.53654444072869,-41.9819984639305,43.6792155556848,-0.192776769399643,0.0705152079463005,0.28985121846199
27.6206905012753,3.53654444072869,-41.9819984639305,43.6792155556848,-0.193023607134819,0.0701815336942673,0.289708137512207
27.6206905012753,3.53654444072869,-41.9819984639305,43.6792155556848,-0.193270459771156,0.0698469281196594,0.289563983678818
27.6206905012753,3.53654444072869,-41.9819984639305,43.6792155556848,-0.193517327308655,0.0695113986730576,0.289418756961823
27.6206905012753,3.53654444072869,-41.9819984639305,43.6792155556848,-0.193764209747314,0.0691749453544617,0.289272457361221
27.6206905012753,3.53654444072869,-41.9819984639305,43.6792155556848,-0.194011107087135,0.0688375681638718,0.289125084877014
27.6206905012753,3.53654444072869,-41.9819984639305,43.6792155556848,-0.194258019328117,0.0684992671012878,0.288976639509201
27.6206905012753,3.53654444072869,-41.9819984639305,43.6792155556848,-0.194504946470261,0.0681600421667099,0.288827121257782
27.6206905012753,3.53654444072869,-41.9819984639305,43.6792155556848,-0.194751888513565,0.0678198933601379,0.288676530122757
27.6206905012753,3.53654444072869,-41.9819984639305,43.6792155556848,-0.194998845458031,0.0674788281321526,0.288524866104126
27.6206905012753,3.53654444072869,-41.9819984639305,43.6792155556848,-0.195245817303658,0.0671368464827538,0.288372159004211
27.6206905012753,3.53654444072869,-41.9819984639305,43.6792155556848,-0.195492804050446,0.0667939409613609,0.288218379020691
27.6206905012753,3.53654444072869,-41.9819984639305,43.6792155556848,-0.195739805698395,0.0664501190185547,0.288063526153564
27.6206905012753,3.53654444072869,-41.9819984639305,43.6792155556848,-0.195986822247505,0.0661053881049156,0.287907630205154
27.6206905012753,3.53654444072869,-41.9819984639305,43.6792155556848,-0.196233853697777,0.0657597407698631,0.287750661373138
27.6206905012753,3.53654444072869,-41.9819984639305,43.6792155556848,-0.19648090004921,0.0654131770133972,0.287592649459839
27.6206905012753,3.53654444072869,-41.9819984639305,43.6792155556848,-0.196727976202965,0.0650657042860985,0.287433564662933
27.6206905012753,3.53654444072869,-41.9819984639305,43.6792155556848,-0.196975067257881,0.0647173151373863,0.287273436784744
27.6206905012753,3.53654444072869,-41.9819984639305,43.6792155556848,-0.197222173213959,0.0643680170178413,0.287112265825272
27.6206905012753,3.53654444072869,-41.9819984639305,43.6792155556848,-0.197469294071198,0.0640178099274635,0.286950051784515
27.6206905012753,3.53654444072869,-41.9819984639305,43.6792155556848,-0.197716429829597,0.0636666938662529,0.286786764860153
27.6206905012753,3.53654444072869,-41.9819984639305,43.6792155556848,-0.19796359539032,0.0633146688342094,0.286622434854507
27.6206905012753,3.53654444072869,-41.9819984639305,43.6792155556848,-0.198210775852203,0.0629617422819138,0.286457061767578
27.6206905012753,3.53654444072869,-41.9819984639305,43.6792155556848,-0.198457971215248,0.0626079067587852,0.286290645599365
27.6206905012753,3.53654444072869,-41.9819984639305,43.6792155556848,-0.198737889528275,0.0622982159256935,0.286129742860794
27.6206905012753,3.53654444072869,-41.9819984639305,43.6792155556848,-0.199073046445847,0.0620588324964046,0.285988867282867
27.6206905012753,3.53654444072869,-41.9819984639305,43.6792155556848,-0.19945327937603,0.0618708617985249,0.285876005887985
27.6206905012753,3.53654444072869,-41.9819984639305,43.6792155556848,-0.199878588318825,0.0617343075573444,0.28579118847847
27.6206905012753,3.53654444072869,-41.9819984639305,43.6792155556848,-0.20034895837307,0.0616491697728634,0.285734385251999
27.6206905012753,3.53654444072869,-41.9819984639305,43.6792155556848,-0.200864404439926,0.0616154484450817,0.285705626010895
27.6206905012753,3.53654444072869,-41.9819984639305,43.6792155556848,-0.201391488313675,0.0616164356470108,0.285728126764297
27.6206905012753,3.53654444072869,-41.9819984639305,43.6792155556848,-0.201896801590919,0.0616354160010815,0.285825163125992
27.6206905012753,3.53654444072869,-41.9819984639305,43.6792155556848,-0.20238034427166,0.061672393232584,0.2859967648983
27.6206905012753,3.53654444072869,-41.9819984639305,43.6792155556848,-0.202842101454735,0.0617273673415184,0.2862429022789
27.6206905012753,3.53654444072869,-41.9819984639305,43.6792155556848,-0.203282088041306,0.0618003383278847,0.286563575267792
27.6206905012753,3.53654444072869,-41.9819984639305,43.6792155556848,-0.203694477677345,0.0618782304227352,0.286938458681107
27.6206905012753,3.53654444072869,-41.9819984639305,43.6792155556848,-0.20407347381115,0.0619479641318321,0.287347197532654
27.6206905012753,3.53654444072869,-41.9819984639305,43.6792155556848,-0.204419061541557,0.0620095394551754,0.287789791822433
27.6206905012753,3.53654444072869,-41.9819984639305,43.6792155556848,-0.20473125576973,0.062062956392765,0.288266241550446
27.6206905012753,3.53654444072869,-41.9819984639305,43.6792155556848,-0.205010041594505,0.0621082186698914,0.28877654671669
27.6206905012753,3.53654444072869,-41.9819984639305,43.6792155556848,-0.205251067876816,0.0621329769492149,0.289284378290176
27.6206905012753,3.53654444072869,-41.9819984639305,43.6792155556848,-0.205449968576431,0.0621248744428158,0.289753407239914
27.6206905012753,3.53654444072869,-41.9819984639305,43.6792155556848,-0.205606758594513,0.0620839148759842,0.290183633565903
27.6206905012753,3.53654444072869,-41.9819984639305,43.6792155556848,-0.2057214230299,0.0620100982487202,0.290575087070465
27.6206905012753,3.53654444072869,-41.9819984639305,43.6792155556848,-0.205793976783752,0.061903428286314,0.290927737951279
27.6206905012753,3.53654444072869,-41.9819984639305,43.6792155556848,-0.205772086977959,0.0617370195686817,0.291200906038284
27.6206905012753,3.53654444072869,-41.9819984639305,43.6792155556848,-0.205613613128662,0.0615028776228428,0.2913458943367
27.6206905012753,3.53654444072869,-41.9819984639305,43.6792155556848,-0.205328732728958,0.061219897121191,0.29135474562645
27.6206905012753,3.53654444072869,-41.9819984639305,43.6792155556848,-0.204917445778847,0.0608880817890167,0.291227430105209
27.6206905012753,3.53654444072869,-41.9819984639305,43.6792155556848,-0.204379752278328,0.0605074279010296,0.29096394777298
27.6206905012753,3.53654444072869,-41.9819984639305,43.6792155556848,-0.203710570931435,0.0600735805928707,0.290627539157867
27.6206905012753,3.53654444072869,-41.9819984639305,43.6792155556848,-0.202938243746758,0.0595988929271698,0.290258169174194
27.6206905012753,3.53654444072869,-41.9819984639305,43.6792155556848,-0.202096179127693,0.0591000765562058,0.289832562208176
27.6206905012753,3.53654444072869,-41.9819984639305,43.6792155556848,-0.201184391975403,0.0585771314799786,0.289350748062134
27.6206905012753,3.53654444072869,-41.9819984639305,43.6792155556848,-0.200202867388725,0.0580300614237785,0.288812726736069
27.6206905012753,3.53654444072869,-41.9819984639305,43.6792155556848,-0.199173420667648,0.0574995577335358,0.288206845521927
27.6206905012753,3.53654444072869,-41.9819984639305,43.6792155556848,-0.198123648762703,0.0570393912494183,0.287541836500168
27.6206905012753,3.53654444072869,-41.9819984639305,43.6792155556848,-0.197059378027916,0.0566626414656639,0.286838054656982
27.6206905012753,3.53654444072869,-41.9819984639305,43.6792155556848,-0.195980608463287,0.0563693083822727,0.286095499992371
27.6206905012753,3.53654444072869,-41.9819984639305,43.6792155556848,-0.194887325167656,0.056159395724535,0.285314202308655
27.6206905012753,3.53654444072869,-41.9819984639305,43.6792155556848,-0.193734496831894,0.0560190975666046,0.284527540206909
27.6206905012753,3.53654444072869,-41.9819984639305,43.6792155556848,-0.19248141348362,0.0559469610452652,0.283805310726166
27.6206905012753,3.53654444072869,-41.9819984639305,43.6792155556848,-0.191132456064224,0.0559553392231464,0.283183813095093
27.6206905012753,3.53654444072869,-41.9819984639305,43.6792155556848,-0.189687609672546,0.0560442358255386,0.282663077116013
27.6206905012753,3.53654444072869,-41.9819984639305,43.6792155556848,-0.188146874308586,0.0562136471271515,0.282243072986603
27.6206905012753,3.53654444072869,-41.9819984639305,43.6792155556848,-0.186553135514259,0.0564548596739769,0.281952887773514
27.6206905012753,3.53654444072869,-41.9819984639305,43.6792155556848,-0.184968858957291,0.0567409880459309,0.28185573220253
27.6206905012753,3.53654444072869,-41.9819984639305,43.6792155556848,-0.183413684368134,0.0570538640022278,0.281985759735107
27.6206905012753,3.53654444072869,-41.9819984639305,43.6792155556848,-0.181887611746788,0.057393491268158,0.282342970371246
27.6206905012753,3.53654444072869,-41.9819984639305,43.6792155556848,-0.180390626192093,0.0577598735690117,0.282927364110947
27.6206905012753,3.53654444072869,-41.9819984639305,43.6792155556848,-0.178943082690239,0.0581537336111069,0.283701181411743
27.6206905012753,3.53654444072869,-41.9819984639305,43.6792155556848,-0.177570417523384,0.0585801638662815,0.284563392400742
27.6206905012753,3.53654444072869,-41.9819984639305,43.6792155556848,-0.176277711987495,0.0590435191988945,0.28545081615448
27.6206905012753,3.53654444072869,-41.9819984639305,43.6792155556848,-0.175064966082573,0.0595438070595264,0.286363422870636
27.6206905012753,3.53654444072869,-41.9819984639305,43.6792155556848,-0.173932179808617,0.060081023722887,0.28730121254921
27.6206905012753,3.53654444072869,-41.9819984639305,43.6792155556848,-0.172874987125397,0.060660257935524,0.288274377584457
27.6206905012753,3.53654444072869,-41.9819984639305,43.6792155556848,-0.171867236495018,0.0612459070980549,0.289304703474045
27.6206905012753,3.53654444072869,-41.9819984639305,43.6792155556848,-0.170887127518654,0.0617972798645496,0.290403842926025
27.6206905012753,3.53654444072869,-41.9819984639305,43.6792155556848,-0.169934675097466,0.0623143762350082,0.291571766138077
27.6206905012753,3.53654444072869,-41.9819984639305,43.6792155556848,-0.169009864330292,0.0627972036600113,0.292808502912521
27.6206905012753,3.53654444072869,-41.9819984639305,43.6792155556848,-0.168093800544739,0.0632624700665474,0.294109672307968
27.6206905012753,3.53654444072869,-41.9819984639305,43.6792155556848,-0.167212650179863,0.0637406930327415,0.295437514781952
27.6206905012753,3.53654444072869,-41.9819984639305,43.6792155556848,-0.166411459445953,0.0642456784844399,0.296758592128754
27.6206905012753,3.53654444072869,-41.9819984639305,43.6792155556848,-0.16569022834301,0.0647774338722229,0.298072904348373
27.6206905012753,3.53654444072869,-41.9819984639305,43.6792155556848,-0.165048971772194,0.0653359517455101,0.299380451440811
27.6206905012753,3.53654444072869,-41.9819984639305,43.6792155556848,-0.164497837424278,0.0659510344266891,0.300698697566986
27.6206905012753,3.53654444072869,-41.9819984639305,43.6792155556848,-0.164004147052765,0.0666611865162849,0.302015990018845
27.6206905012753,3.53654444072869,-41.9819984639305,43.6792155556848,-0.163525030016899,0.0674751326441765,0.303303271532059
27.6206905012753,3.53654444072869,-41.9819984639305,43.6792155556848,-0.16306047141552,0.0683928728103638,0.304560542106628
27.6206905012753,3.53654444072869,-41.9819984639305,43.6792155556848,-0.162610486149788,0.0694144070148468,0.305787801742554
27.6206905012753,3.53654444072869,-41.9819984639305,43.6792155556848,-0.162163436412811,0.0705244764685631,0.306971251964569
27.6206905012753,3.53654444072869,-41.9819984639305,43.6792155556848,-0.161687359213829,0.0717070922255516,0.308134883642197
27.6206905012753,3.53654444072869,-41.9819984639305,43.6792155556848,-0.161161914467812,0.0729615390300751,0.309316486120224
27.6206905012753,3.53654444072869,-41.9819984639305,43.6792155556848,-0.160587087273598,0.0742878094315529,0.310516029596329
27.6206905012753,3.53654444072869,-41.9819984639305,43.6792155556848,-0.159962892532349,0.0756859108805656,0.311733543872833
27.6206905012753,3.53654444072869,-41.9819984639305,43.6792155556848,-0.159296587109566,0.0771405771374702,0.312934130430222
27.6206905012753,3.53654444072869,-41.9819984639305,43.6792155556848,-0.158599808812141,0.0786314681172371,0.314072757959366
27.6206905012753,3.53654444072869,-41.9819984639305,43.6792155556848,-0.157876908779144,0.0801535025238991,0.315139263868332
27.6206905012753,3.53654444072869,-41.9819984639305,43.6792155556848,-0.157127887010574,0.0817066803574562,0.316133618354797
27.6206905012753,3.53654444072869,-41.9819984639305,43.6792155556848,-0.156352743506432,0.0832909941673279,0.317055851221085
27.6206905012753,3.53654444072869,-41.9819984639305,43.6792155556848,-0.155544206500053,0.0848686695098877,0.31795534491539
27.6206905012753,3.53654444072869,-41.9819984639305,43.6792155556848,-0.154713913798332,0.0863852053880692,0.318885892629623
27.6206905012753,3.53654444072869,-41.9819984639305,43.6792155556848,-0.153880760073662,0.087823897600174,0.319851845502853
27.6206905012753,3.53654444072869,-41.9819984639305,43.6792155556848,-0.153044730424881,0.0891847386956215,0.320853233337402
27.6206905012753,3.53654444072869,-41.9819984639305,43.6792155556848,-0.152205839753151,0.0904677361249924,0.321890026330948
27.6206905012753,3.53654444072869,-41.9819984639305,43.6792155556848,-0.151338651776314,0.091681607067585,0.322951346635818
27.6206905012753,3.53654444072869,-41.9819984639305,43.6792155556848,-0.150407552719116,0.0928052812814713,0.324008852243423
27.6206905012753,3.53654444072869,-41.9819984639305,43.6792155556848,-0.149402379989624,0.0938089638948441,0.325045078992844
27.6206905012753,3.53654444072869,-41.9819984639305,43.6792155556848,-0.148323133587837,0.094692662358284,0.326060056686401
27.6206905012753,3.53654444072869,-41.9819984639305,43.6792155556848,-0.147169813513756,0.0954563766717911,0.327053785324097
27.6206905012753,3.53654444072869,-41.9819984639305,43.6792155556848,-0.145968571305275,0.096089206635952,0.327984839677811
27.6206905012753,3.53654444072869,-41.9819984639305,43.6792155556848,-0.144757196307182,0.096595510840416,0.328825622797012
27.6206905012753,3.53654444072869,-41.9819984639305,43.6792155556848,-0.14354732632637,0.0969905555248261,0.329589933156967
27.6206905012753,3.53654444072869,-41.9819984639305,43.6792155556848,-0.142338946461678,0.0972743406891823,0.330277770757675
27.6206905012753,3.53654444072869,-41.9819984639305,43.6792155556848,-0.141132056713104,0.0974468588829041,0.330889135599136
27.6206905012753,3.53654444072869,-41.9819984639305,43.6792155556848,-0.139897599816322,0.0975284650921822,0.331431299448013
27.6206905012753,3.53654444072869,-41.9819984639305,43.6792155556848,-0.138599246740341,0.0975547581911087,0.331946402788162
27.6206905012753,3.53654444072869,-41.9819984639305,43.6792155556848,-0.137229725718498,0.0975410044193268,0.332469314336777
27.6206905012753,3.53654444072869,-41.9819984639305,43.6792155556848,-0.135789036750793,0.0974872037768364,0.333000063896179
27.6206905012753,3.53654444072869,-41.9819984639305,43.6792155556848,-0.134277179837227,0.0973933562636375,0.33353865146637
27.6206905012753,3.53654444072869,-41.9819984639305,43.6792155556848,-0.13273848593235,0.0972412973642349,0.334050893783569
27.6206905012753,3.53654444072869,-41.9819984639305,43.6792155556848,-0.131224527955055,0.0970506444573402,0.334453254938126
27.6206905012753,3.53654444072869,-41.9819984639305,43.6792155556848,-0.129742592573166,0.0968591868877411,0.33469632267952
27.6206905012753,3.53654444072869,-41.9819984639305,43.6792155556848,-0.128292664885521,0.0966669172048569,0.334780097007751
27.6206905012753,3.53654444072869,-41.9819984639305,43.6792155556848,-0.126874759793282,0.0964738428592682,0.334704577922821
27.6206905012753,3.53654444072869,-41.9819984639305,43.6792155556848,-0.125472158193588,0.096279963850975,0.33451047539711
27.6206905012753,3.53654444072869,-41.9819984639305,43.6792155556848,-0.124093577265739,0.096076563000679,0.334249377250671
27.6206905012753,3.53654444072869,-41.9819984639305,43.6792155556848,-0.122764445841312,0.0958549231290817,0.333932161331177
27.6206905012753,3.53654444072869,-41.9819984639305,43.6792155556848,-0.121484771370888,0.0956150442361832,0.333558857440948
27.6206905012753,3.53654444072869,-41.9819984639305,43.6792155556848,-0.120254553854465,0.0953569263219833,0.333129435777664
27.6206905012753,3.53654444072869,-41.9819984639305,43.6792155556848,-0.119089774787426,0.0951299741864204,0.332625031471252
27.6206905012753,3.53654444072869,-41.9819984639305,43.6792155556848,-0.117980264127254,0.0949945077300072,0.332068145275116
27.6206905012753,3.53654444072869,-41.9819984639305,43.6792155556848,-0.116899862885475,0.0949614271521568,0.331500232219696
27.6206905012753,3.53654444072869,-41.9819984639305,43.6792155556848,-0.115848571062088,0.0950307250022888,0.33092126250267
27.6206905012753,3.53654444072869,-41.9819984639305,43.6792155556848,-0.114826396107674,0.0952024087309837,0.330331236124039
27.6206905012753,3.53654444072869,-41.9819984639305,43.6792155556848,-0.113845683634281,0.095454677939415,0.329770863056183
27.6206905012753,3.53654444072869,-41.9819984639305,43.6792155556848,-0.112947851419449,0.0957453921437263,0.329273581504822
27.6206905012753,3.53654444072869,-41.9819984639305,43.6792155556848,-0.112161964178085,0.0960542038083076,0.32883208990097
27.6206905012753,3.53654444072869,-41.9819984639305,43.6792155556848,-0.111488021910191,0.0963811203837395,0.328446418046951
27.6206905012753,3.53654444072869,-41.9819984639305,43.6792155556848,-0.110926024615765,0.0967261344194412,0.328116565942764
27.6206905012753,3.53654444072869,-41.9819984639305,43.6792155556848,-0.110481791198254,0.09705800563097,0.327835977077484
27.6206905012753,3.53654444072869,-41.9819984639305,43.6792155556848,-0.110116802155972,0.0973636582493782,0.327632278203964
27.6206905012753,3.53654444072869,-41.9819984639305,43.6792155556848,-0.109786741435528,0.0976612567901611,0.327539622783661
27.6206905012753,3.53654444072869,-41.9819984639305,43.6792155556848,-0.109491609036922,0.0979508012533188,0.327558010816574
27.6206905012753,3.53654444072869,-41.9819984639305,43.6792155556848,-0.109231397509575,0.0982322916388512,0.327687442302704
27.6206905012753,3.53654444072869,-41.9819984639305,43.6792155556848,-0.109035179018974,0.0984948351979256,0.327909737825394
27.6206905012753,3.53654444072869,-41.9819984639305,43.6792155556848,-0.108948729932308,0.0987275242805481,0.32816606760025
27.6206905012753,3.53654444072869,-41.9819984639305,43.6792155556848,-0.108988761901855,0.0989303663372993,0.328415721654892
27.6206905012753,3.53654444072869,-41.9819984639305,43.6792155556848,-0.109155274927616,0.0991033613681793,0.328658729791641
27.6206905012753,3.53654444072869,-41.9819984639305,43.6792155556848,-0.10944826900959,0.099246509373188,0.328895062208176
27.6206905012753,3.53654444072869,-41.9819984639305,43.6792155556848,-0.109877914190292,0.0993569120764732,0.329179227352142
27.6206905012753,3.53654444072869,-41.9819984639305,43.6792155556848,-0.110438399016857,0.0993822440505028,0.329584628343582
27.6206905012753,3.53654444072869,-41.9819984639305,43.6792155556848,-0.111113741993904,0.0992731004953384,0.330130159854889
27.6206905012753,3.53654444072869,-41.9819984639305,43.6792155556848,-0.111903943121433,0.0990294814109802,0.33081579208374
27.6206905012753,3.53654444072869,-41.9819984639305,43.6792155556848,-0.112809002399445,0.0986513867974281,0.331641554832459
27.6206905012753,3.53654444072869,-41.9819984639305,43.6792155556848,-0.113816559314728,0.0981591641902924,0.33257257938385
27.6206905012753,3.53654444072869,-41.9819984639305,43.6792155556848,-0.114901922643185,0.0975949540734291,0.33353328704834
27.6206905012753,3.53654444072869,-41.9819984639305,43.6792155556848,-0.116052731871605,0.0969805642962456,0.334482967853546
27.6206905012753,3.53654444072869,-41.9819984639305,43.6792155556848,-0.117268986999989,0.0963159874081612,0.335421651601791
27.6206905012753,3.53654444072869,-41.9819984639305,43.6792155556848,-0.118550688028336,0.0956012308597565,0.336349308490753
27.6206905012753,3.53654444072869,-41.9819984639305,43.6792155556848,-0.119873858988285,0.0948559120297432,0.337257981300354
27.6206905012753,3.53654444072869,-41.9819984639305,43.6792155556848,-0.12120870500803,0.0941308960318565,0.338146209716797
27.6206905012753,3.53654444072869,-41.9819984639305,43.6792155556848,-0.122549414634705,0.0934574231505394,0.339020520448685
27.6206905012753,3.53654444072869,-41.9819984639305,43.6792155556848,-0.12389599531889,0.0928355008363724,0.339880913496017
27.6206905012753,3.53654444072869,-41.9819984639305,43.6792155556848,-0.125248432159424,0.0922651290893555,0.340727418661118
27.6206905012753,3.53654444072869,-41.9819984639305,43.6792155556848,-0.126620545983315,0.0917201489210129,0.341576009988785
27.6206905012753,3.53654444072869,-41.9819984639305,43.6792155556848,-0.127997070550919,0.0911853015422821,0.342460811138153
27.6206905012753,3.53654444072869,-41.9819984639305,43.6792155556848,-0.129348948597908,0.0906714871525764,0.343400031328201
27.6206905012753,3.53654444072869,-41.9819984639305,43.6792155556848,-0.130676180124283,0.0901787132024765,0.344393640756607
27.6206905012753,3.53654444072869,-41.9819984639305,43.6792155556848,-0.131978750228882,0.0897069722414017,0.345441669225693
27.6206905012753,3.53654444072869,-41.9819984639305,43.6792155556848,-0.133211627602577,0.0892657116055489,0.346522301435471
27.6206905012753,3.53654444072869,-41.9819984639305,43.6792155556848,-0.134319573640823,0.0888672918081284,0.347559243440628
27.6206905012753,3.53654444072869,-41.9819984639305,43.6792155556848,-0.135292425751686,0.0885146111249924,0.348497986793518
27.6206905012753,3.53654444072869,-41.9819984639305,43.6792155556848,-0.136130183935165,0.0882076770067215,0.349338561296463
27.6206905012753,3.53654444072869,-41.9819984639305,43.6792155556848,-0.1368328332901,0.0879464894533157,0.350080966949463
27.6206905012753,3.53654444072869,-41.9819984639305,43.6792155556848,-0.137403294444084,0.0877644717693329,0.350726634263992
27.6206905012753,3.53654444072869,-41.9819984639305,43.6792155556848,-0.13785682618618,0.0876747071743011,0.351311922073364
27.6206905012753,3.53654444072869,-41.9819984639305,43.6792155556848,-0.138205781579018,0.0876568481326103,0.351871699094772
27.6206905012753,3.53654444072869,-41.9819984639305,43.6792155556848,-0.138450160622597,0.0877108946442604,0.352405965328217
27.6206905012753,3.53654444072869,-41.9819984639305,43.6792155556848,-0.138589963316917,0.087836854159832,0.352914720773697
27.6206905012753,3.53654444072869,-41.9819984639305,43.6792155556848,-0.138617187738419,0.0880536139011383,0.353460431098938
27.6206905012753,3.53654444072869,-41.9819984639305,43.6792155556848,-0.138547837734222,0.0883604511618614,0.354113608598709
27.6206905012753,3.53654444072869,-41.9819984639305,43.6792155556848,-0.138405874371529,0.0887377485632896,0.35488224029541
27.6206905012753,3.53654444072869,-41.9819984639305,43.6792155556848,-0.138191312551498,0.089185506105423,0.355766355991364
27.6206905012753,3.53654444072869,-41.9819984639305,43.6792155556848,-0.137904137372971,0.0897037237882614,0.356765925884247
27.6206905012753,3.53654444072869,-41.9819984639305,43.6792155556848,-0.137523293495178,0.0902640596032143,0.357806831598282
27.6206905012753,3.53654444072869,-41.9819984639305,43.6792155556848,-0.137013897299767,0.0908643379807472,0.358798980712891
27.6163851956043,3.48207594080754,-41.9450740200219,43.7261608553846,-0.136362135410309,0.0915307253599167,0.359726399183273
27.6748711172575,3.39688668066515,-41.9109577200753,43.7469812284153,-0.135568007826805,0.0922632142901421,0.36058908700943
27.7834310556376,3.28591040123642,-41.8839041671125,43.741411447095,-0.134631529450417,0.0930618047714233,0.36138704419136
27.9184189472901,3.15789626977921,-41.866933440489,43.7168778865174,-0.13355341553688,0.0939265042543411,0.362164586782455
28.0506249491246,3.02396164920014,-41.8611423058654,43.6826635155498,-0.132379442453384,0.0948478654026985,0.362987846136093
28.150905453522,2.89719739877977,-41.8651478847999,43.6552124504711,-0.131154671311378,0.0958164408802986,0.363878637552261
28.1968728709935,2.78957606318676,-41.875331380451,43.6467251646496,-0.129879087209702,0.0968322306871414,0.364836931228638
28.1760749328291,2.70872849506708,-41.8866646256111,43.6648932608611,-0.128552705049515,0.0978952422738075,0.365862756967545
28.0896376420506,2.6582727711063,-41.8937326709797,43.7097167391056,-0.127184242010117,0.0990083739161491,0.366927742958069
27.9521328024674,2.63728792632991,-41.8920371878328,43.7729735412434,-0.125779509544373,0.100141115486622,0.368002146482468
27.7876701258367,2.64110335265289,-41.8791197256074,43.8391478478824,-0.124335594475269,0.101260043680668,0.369084477424622
27.6261218099679,2.66024626748025,-41.8549749859185,43.8875518998328,-0.122852496802807,0.102365158498287,0.370174735784531
27.4954392239863,2.6860332867666,-41.8222150724895,43.9017415808155,-0.121330223977566,0.10345645993948,0.371272951364517
27.4172151317185,2.71004415931638,-41.7852429431174,43.8660684575973,-0.11976296454668,0.104473635554314,0.372379124164581
27.4025770924373,2.72543743103323,-41.7494735471026,43.777747639518,-0.118152894079685,0.105337485671043,0.373430728912354
27.4502003967053,2.72925285735621,-41.7197919952621,43.6410227694884,-0.116508007049561,0.106029123067856,0.374365299940109
27.5474340693971,2.72030634046095,-41.6994938829628,43.4720727361055,-0.114828303456306,0.106548547744751,0.375182867050171
27.6728840531017,2.69932149568456,-41.6898084354861,43.2925135954458,-0.113113783299923,0.106895759701729,0.375883400440216
27.8012483975682,2.66873230188826,-41.6895329194748,43.1268789080869,-0.1113440990448,0.107084564864635,0.376500308513641
27.9088148038703,2.63084117150832,-41.6954618121041,42.9946629086499,-0.109519980847836,0.107157111167908,0.377141177654266
27.9763087496966,2.58683220236913,-41.7035312522064,42.9085965258669,-0.107662498950958,0.107141733169556,0.377880096435547
27.9949871527614,2.5372316601704,-41.7097462576167,42.8706689673524,-0.105771653354168,0.10703843832016,0.378717064857483
27.9629954198526,2.48197376169966,-41.7112192086006,42.8721277196029,-0.103847444057465,0.10684721916914,0.379652082920074
27.8891428687276,2.42132163980678,-41.7068374443428,42.8978548047492,-0.10192983597517,0.106590606272221,0.38062995672226
27.7864116518713,2.35665674195352,-41.6972579645628,42.9259689390327,-0.100058071315289,0.106291122734547,0.381551116704941
27.6712281663052,2.28876846668948,-41.6844835587279,42.9368432739914,-0.0982314199209213,0.105948776006699,0.382371246814728
27.5585616286698,2.2220642892498,-41.6709885725555,42.9189404054618,-0.0964498817920685,0.105563566088676,0.38309034705162
27.4590097144628,2.15924132134557,-41.6588605696703,42.8661600967597,-0.09471345692873,0.1051354855299,0.383708417415619
27.3790634999267,2.10266775862553,-41.6486187917861,42.7876527029115,-0.092989444732666,0.104637660086155,0.384294480085373
27.3187229850614,2.05602746098773,-41.6392618441691,42.6973426772178,-0.0912364348769188,0.104040294885635,0.384945929050446
27.2759348702392,2.01747849848314,-41.6278491232365,42.6179069864828,-0.0894457027316093,0.103340484201908,0.385691076517105
27.2456652595988,1.98478424188796,-41.6106134773713,42.5697681622144,-0.0876172482967377,0.102538228034973,0.386529922485352
27.222681550863,1.95347143275454,-41.5836658921052,42.5695029345325,-0.0857510715723038,0.10163352638483,0.387462496757507
27.205526563651,1.91748801553609,-41.5442406105549,42.620824490984,-0.083887867629528,0.100656174123287,0.388431370258331
27.1943990043784,1.87222916536006,-41.4915746653043,42.7202848717039,-0.0820741429924965,0.0996962711215019,0.389379173517227
27.1915508790884,1.81473463766551,-41.427178096031,42.8511747327313,-0.0803157016634941,0.0988141298294067,0.390305876731873
27.2016849062831,1.74546491493969,-41.3549929010517,42.9885626719657,-0.0786125510931015,0.0980097502470016,0.391211479902267
27.2276492112526,1.66810385708066,-41.280296271661,43.1044671689647,-0.0769646838307381,0.0972831398248672,0.392096012830734
27.2711659162652,1.59100593207149,-41.2087415844769,43.1730285247409,-0.0753655657172203,0.0966597199440002,0.392949998378754
27.3292544250872,1.52285452395758,-41.1449967165382,43.1770069399697,-0.0738290026783943,0.0961511209607124,0.393730580806732
27.3952911905326,1.47397759709596,-41.0918221263435,43.1096391087621,-0.0723753422498703,0.0957435443997383,0.394404351711273
27.4587447725753,1.45272961946972,-41.0493555718985,42.9766274262793,-0.0710045844316483,0.0954369828104973,0.394971311092377
27.5087525538303,1.46325493346414,-41.0153028525699,42.7978639686654,-0.0697167217731476,0.0952314436435699,0.39543142914772
27.5328622655877,1.5058166719291,-40.9857166716565,42.5949647919968,-0.0685052275657654,0.0951138436794281,0.395776003599167
27.5239867123584,1.5758757932045,-40.9560404182009,42.3964418720798,-0.0673235878348351,0.0950485840439796,0.396051555871964
27.4788141205492,1.66474891324494,-40.92237977935,42.2249721757187,-0.0661318451166153,0.0950131341814995,0.396313309669495
27.4018485022468,1.76256855018063,-40.8826736834035,42.0977955022382,-0.0649299919605255,0.0950075015425682,0.396561235189438
27.3027602363429,1.85788842504266,-40.8372824205301,42.0216751575272,-0.0637180358171463,0.0950316786766052,0.396795362234116
27.1961873621186,1.94241985306039,-40.7891095056187,41.9931631817208,-0.0625177696347237,0.0950842201709747,0.396991699934006
27.1016031083012,2.0103739115369,-40.7426585657784,41.9996612599278,-0.0613836944103241,0.095190554857254,0.397057265043259
27.0345065753061,2.05964553767331,-40.7031538084556,42.0247252758693,-0.0603485107421875,0.0953775718808174,0.396923005580902
27.0082773284492,2.09339232566794,-40.6751995300711,42.0503197471745,-0.0594122149050236,0.0956452712416649,0.396588921546936
27.0292077375573,2.11608753396842,-40.6613177618058,42.0643768143163,-0.0585748068988323,0.0959936529397964,0.396055042743683
27.0940522645091,2.13325695242183,-40.6615455923537,42.0570830530635,-0.0578479133546352,0.096424899995327,0.395320624113083
27.1926106466382,2.15207095118687,-40.6731066680616,42.0284384634161,-0.0572024695575237,0.0969114005565643,0.394442319869995
27.3064031872952,2.17641073979898,-40.6909463297979,41.9833497574898,-0.0565977841615677,0.0974233597517014,0.393477559089661
27.4135721807662,2.20877608033184,-40.7088866608461,41.9321608148793,-0.0560338608920574,0.0979607850313187,0.392426341772079
