EOG_left_h,EOG_right_h,EOG_left_v,EOG_right_v,head_horizontal,head_frontal,head_sagittal
4.67346728981294,-5.57620770476217,-14.1809471649362,30.4603976271148,-0.770720601081848,0.231706991791725,0.351081222295761
4.82691268222834,-5.55318985967114,-14.2268148351698,30.1878292060698,-0.77226722240448,0.233103334903717,0.347448289394379
4.9459927003007,-5.64211491588613,-14.3016915286306,29.8469715045901,-0.773766994476318,0.234574481844902,0.343793541193008
4.99694136575113,-5.83288151692835,-14.3914524329619,29.4908075850821,-0.775203883647919,0.236097186803818,0.340120613574982
4.95877981633532,-6.10015347359688,-14.4758975476965,29.1699657071781,-0.776570677757263,0.237594440579414,0.336473107337952
4.82491469534793,-6.41048039230618,-14.5378644664227,28.9244775180295,-0.777876019477844,0.239012464880943,0.33289098739624
4.61492627421696,-6.72262886710183,-14.564899053514,28.7873102564669,-0.779119968414307,0.240351259708405,0.329374223947525
4.35958355090072,-6.99933979621776,-14.5491035644269,28.7561091197166,-0.78030252456665,0.241610825061798,0.325922846794128
4.11023478822569,-7.21130268626467,-14.493971232325,28.8179226925238,-0.781401872634888,0.242792621254921,0.322564482688904
3.91463187263367,-7.33881161230851,-14.4089185987793,28.948614246459,-0.782373011112213,0.243934437632561,0.319307118654251
3.81573152205343,-7.37408356198038,-14.3082223558493,29.1205148489323,-0.78319263458252,0.245072588324547,0.316131144762039
3.83571139085752,-7.31794651531952,-14.2101080678662,29.3006572611133,-0.783860802650452,0.24620708823204,0.313036531209946
3.97377228429377,-7.1851385170245,-14.1276373892674,29.470203060813,-0.784377455711365,0.247337937355042,0.310023307800293
4.20414017160491,-6.99387512795873,-14.0741757338958,29.61678953347,-0.784728050231934,0.248447701334953,0.307106733322144
4.47566658865247,-6.76435906107981,-14.0503306205625,29.7404166790844,-0.784903943538666,0.249500781297684,0.304338395595551
4.73720307129798,-6.51811779740813,-14.0536719740232,29.8346087900287,-0.784910917282104,0.250479012727737,0.301754623651505
4.93160719476176,-6.27386368583064,-14.0738719744903,29.9146720843314,-0.78474897146225,0.251382380723953,0.299355447292328
5.01931881881171,-6.047328347093,-14.1002990427706,29.9711873508979,-0.784418106079102,0.252210885286331,0.297140836715698
4.98675163266104,-5.85043469376036,-14.1204990432377,30.0153399029031,-0.783890664577484,0.252987802028656,0.295082479715347
4.84469476546398,-5.68914418211529,-14.1273336298619,30.0347670257853,-0.783171057701111,0.253734201192856,0.293105512857437
4.63190916270044,-5.56925267243251,-14.1198915244266,30.0282913181579,-0.782291293144226,0.254447877407074,0.291163444519043
4.39854429506869,-5.49076016471201,-14.099387764554,29.9929692765538,-0.781251311302185,0.255128860473633,0.289256304502487
4.20374057422883,-5.45267308290671,-14.0747832527069,29.9282122002796,-0.780051112174988,0.255777150392532,0.287384063005447
4.0946504905585,-5.45201069887531,-14.0574689665922,29.8446167018165,-0.778642058372498,0.256370931863785,0.285545289516449
4.097048074815,-5.48099000024891,-14.0554945304563,29.7586664005799,-0.776991426944733,0.256911665201187,0.283734887838364
4.21213211912654,-5.53447751078419,-14.0756945309234,29.6897884194519,-0.775115191936493,0.257422596216202,0.28194922208786
4.4157269822402,-5.60336545004943,-14.117765208588,29.6527002757676,-0.773013353347778,0.257903754711151,0.280188292264938
4.66048037509028,-5.67473732943242,-14.1759351347452,29.6550550785412,-0.770685970783234,0.258355110883713,0.278452128171921
4.89004906764926,-5.74163811660347,-14.240635888121,29.7021511340133,-0.76816862821579,0.258717119693756,0.276738524436951
5.04988801808196,-5.79545681915445,-14.2986539345754,29.7798596255423,-0.765518665313721,0.258928716182709,0.275017708539963
5.10443305991712,-5.83006638479492,-14.3357125820489,29.8663986274724,-0.762757956981659,0.258988440036774,0.273262053728104
5.03730070073539,-5.84563240953274,-14.3402689731317,29.9364540099872,-0.75988644361496,0.258896321058273,0.271471589803696
4.85788147887467,-5.84546681352489,-14.3114118296072,29.9688325481243,-0.756904184818268,0.258652359247208,0.269646286964417
4.60273855424647,-5.83768380115598,-14.2471667153397,29.9458732210816,-0.753819167613983,0.258268892765045,0.267762213945389
4.32162180017295,-5.83635903309318,-14.1564945327919,29.8646325253922,-0.750653862953186,0.257775723934174,0.265780091285706
4.07007525192948,-5.85391220992519,-14.0513937784818,29.7362957742306,-0.747422873973846,0.25719028711319,0.263684689998627
3.89265401694917,-5.90276303224069,-13.9484193400104,29.5908867029604,-0.74412614107132,0.256512582302094,0.261476010084152
3.81972749581425,-5.98920414833795,-13.8615441500316,29.461372550412,-0.74076372385025,0.255742609500885,0.25915402173996
3.85469226622141,-6.11389794224836,-13.8036779832799,29.3860188616565,-0.737317442893982,0.254911631345749,0.256742745637894
3.98136463443932,-6.2707173616815,-13.7807441481631,29.3972041748312,-0.733796715736389,0.254027605056763,0.254294484853745
4.16118345367612,-6.44326840186031,-13.7953245996281,29.5114121093511,-0.730229198932648,0.253067314624786,0.251837581396103
4.34639683749002,-6.60803642967022,-13.8440779842141,29.7286426652164,-0.726614832878113,0.25203076004982,0.249372035264969
4.49125088631966,-6.74216919602803,-13.9191065573777,30.0330009237051,-0.722953677177429,0.250917941331863,0.246897861361504
4.55658505730902,-6.82115849177207,-14.0084118226007,30.3856326390528,-0.719240605831146,0.249760806560516,0.244431763887405
4.52621565672681,-6.83142544425872,-14.0999952833651,30.7470948648015,-0.71551924943924,0.248613148927689,0.24199190735817
4.40014268457301,-6.76651180918185,-14.1847441575052,31.0679367427055,-0.711838245391846,0.247496768832207,0.239579766988754
4.20134298997234,-6.63734692305952,-14.2511155876115,31.3098927276936,-0.70819765329361,0.246411666274071,0.237195327877998
3.96518094070801,-6.4651270748964,-14.2922749870595,31.4429390844024,-0.704597473144531,0.245357841253281,0.234838590025902
3.73701083896533,-6.28528981037223,-14.3038178444692,31.4635436086715,-0.701058745384216,0.244314208626747,0.232489943504333
3.55679242235245,-6.13227909911961,-14.2839216034077,31.3699401984206,-0.69756692647934,0.243319302797318,0.230131953954697
3.45709287702005,-6.04451321495957,-14.2359276173354,31.1856768813858,-0.69408643245697,0.242432698607445,0.227766796946526
3.45649348095593,-6.04848751914794,-14.1639366382271,30.9443095970911,-0.690617263317108,0.241654396057129,0.225394487380981
3.55679242235245,-6.15579373223419,-14.0784283655731,30.6764507815933,-0.687159478664398,0.24098439514637,0.223015025258064
3.74460318911088,-6.35947682188865,-13.9895787394584,30.4168337758031,-0.683696269989014,0.240424871444702,0.220651656389236
3.99535054260219,-6.63370381088684,-13.9119682113479,30.192538811617,-0.680203020572662,0.239965662360191,0.218351617455482
4.28146226387673,-6.93840046532927,-13.8578990371653,30.0265252160777,-0.6766716837883,0.239594414830208,0.216138884425163
4.57077076415993,-7.22819347906528,-13.8402809916451,29.9270347988928,-0.673102259635925,0.239311143755913,0.21401347219944
4.83870080482275,-7.45655037388926,-13.8670118193309,29.8893579545151,-0.669494807720184,0.239115834236145,0.211975380778313
5.06467312099699,-7.59068314024707,-13.939154678142,29.9146720843314,-0.665889203548431,0.239044815301895,0.210002079606056
5.2353012005839,-7.61005787316542,-14.0521531769956,29.9894370723934,-0.662343621253967,0.239103183150291,0.208047062158585
5.3437918881901,-7.51980804888763,-14.1903637065074,30.0995241020595,-0.658876240253448,0.239259704947472,0.206086367368698
5.38814719693518,-7.34162674444195,-14.3335862662102,30.2390461663957,-0.655487060546875,0.239514365792274,0.204119995236397
5.37156390582778,-7.11492580969646,-14.4561531863377,30.3909309452934,-0.652176082134247,0.2398671656847,0.202147945761681
5.29623980043637,-6.8832569947155,-14.5302704812847,30.5516462345921,-0.648957848548889,0.24026070535183,0.200132429599762
5.17476219810751,-6.68752251343781,-14.5375607070172,30.711184122504,-0.645851969718933,0.240605622529984,0.198018968105316
5.01272546210636,-6.56034477940966,-14.4626840135564,30.8630689014016,-0.642863512039185,0.24086993932724,0.195790842175484
4.82751207829246,-6.5136467051962,-14.3070073182272,31.0037683671247,-0.639992475509644,0.241053655743599,0.193448051810265
4.63810292202971,-6.53815491435788,-14.0800990423035,31.1326938189797,-0.637238919734955,0.24115677177906,0.190990597009659
4.46707524506671,-6.61018917777226,-13.8071712164434,31.2539661618204,-0.634630382061005,0.241203278303146,0.188472986221313
4.33760569521622,-6.69431194975962,-13.5199666985239,31.3722950011942,-0.632173478603363,0.241238221526146,0.185969337821007
4.27247132291489,-6.75044899642049,-13.2558478954239,31.4794385273933,-0.62984710931778,0.241282671689987,0.18349926173687
4.28705662714187,-6.74514992416931,-13.0441275897762,31.5901142577529,-0.627651214599609,0.24133662879467,0.181062772870064
4.38615677641015,-6.66185513222119,-12.9103215716445,31.6984351853388,-0.625585854053497,0.241400092840195,0.178659871220589
4.56118042713396,-6.49890866049763,-12.862479465275,31.8096996163917,-0.623683035373688,0.241490513086319,0.17631670832634
4.79074911969294,-6.27402928183848,-12.8961967592878,31.9191979453645,-0.621991395950317,0.241623148322105,0.174036204814911
5.03809989548755,-6.01950821777434,-12.9932478893516,32.0222205667098,-0.620527625083923,0.241795808076859,0.17179511487484
5.26327301690963,-5.77376374212621,-13.1244719525364,32.1069934665596,-0.61929178237915,0.24200850725174,0.169593423604965
5.42031478570976,-5.57256459258949,-13.2547847375046,32.16762963798,-0.618283808231354,0.242261245846748,0.167431145906448
5.47206264591235,-5.44141255437297,-13.3554809804346,32.1900002643293,-0.617529928684235,0.242578715085983,0.165273398160934
5.3975377352731,-5.39123696399467,-13.40529752294,32.1758714476877,-0.617016315460205,0.242949306964874,0.163107842206955
5.19114569052687,-5.4149171931171,-13.3936027858274,32.1205335825079,-0.616702973842621,0.243336692452431,0.160957008600235
4.87126799097341,-5.49175374075911,-13.3263200775047,32.0228092674032,-0.616589963436127,0.243740856647491,0.158820882439613
4.47406819914814,-5.58796502131946,-13.222889999925,31.900948223869,-0.616677224636078,0.244161814451218,0.156699478626251
4.05129417525363,-5.67589650148736,-13.1079170649355,31.7637809623064,-0.616988778114319,0.244595929980278,0.154565185308456
3.65848995456526,-5.72408493977146,-13.0096508972497,31.6266137007438,-0.617534041404724,0.245096981525421,0.152428179979324
3.34960118285406,-5.71911705953599,-12.9537591666339,31.511228364837,-0.618298530578613,0.245722368359566,0.150326237082481
3.16418800035212,-5.65999928473384,-12.9529997681201,31.4270441656806,-0.619282186031342,0.246472090482712,0.148259371519089
3.11943309423096,-5.55865452793016,-13.0093471378441,31.3881899199161,-0.620485067367554,0.247346147894859,0.146227583289146
3.21313867892213,-5.43843182623168,-13.1129290951266,31.3940769268501,-0.621947824954987,0.24835616350174,0.144256308674812
3.42072951579661,-5.33046322911404,-13.2403561657424,31.4370520774684,-0.623683571815491,0.249489799141884,0.142316475510597
3.69884928954952,-5.2589257537232,-13.3664163190333,31.5088735620634,-0.62566465139389,0.25072306394577,0.140353605151176
3.99215376359353,-5.24898999325226,-13.4645306070164,31.5977673667671,-0.62789112329483,0.25205597281456,0.138367682695389
4.2514924606706,-5.31141968821138,-13.511005796061,31.6860724707774,-0.630362927913666,0.253488510847092,0.136358723044395
4.43450805891605,-5.44853318271048,-13.4997666980568,31.7537730505186,-0.633089542388916,0.254996716976166,0.134328901767731
4.51602592363673,-5.65105710030999,-13.4291426362733,31.7955707997501,-0.636048436164856,0.256539165973663,0.132254242897034
4.48725491255884,-5.90590935638983,-13.3137140621756,31.8073448136181,-0.639207661151886,0.258098423480988,0.130108594894409
4.36298012859741,-6.1942120060552,-13.1750478935555,31.7967482011369,-0.642567217350006,0.259674489498138,0.127891972661018
4.1747697644629,-6.49559674034065,-13.0383561610713,31.7684905678536,-0.646127104759216,0.261267364025116,0.1256043612957
3.96138476563524,-6.78986084628858,-12.924598263704,31.7402329345703,-0.649902582168579,0.262890130281448,0.123239226639271
3.76558205135517,-7.06441902730247,-12.8535185628122,31.7231606144617,-0.653882741928101,0.264531165361404,0.120824910700321
3.62072800252553,-7.30188370255815,-12.8324072841285,31.7125640019804,-0.658041417598724,0.266165763139725,0.118396289646626
3.55079846171122,-7.49198791956897,-12.8585305930033,31.7290476213957,-0.66237860918045,0.267793923616409,0.115953370928764
3.56618296069037,-7.62496151387184,-12.9223200681625,31.7561278532922,-0.666894316673279,0.269415646791458,0.113496161997318
3.65928914931742,-7.69467743317633,-13.0069170626,31.7861515886557,-0.671616196632385,0.271017134189606,0.111003585159779
3.81513212598931,-7.69898292938041,-13.0940960119843,31.7985143032171,-0.676547825336456,0.272588193416595,0.108482182025909
4.00354228881186,-7.63969955857041,-13.1674539084175,31.7867402893491,-0.681665241718292,0.274132490158081,0.105959571897984
4.19654782145935,-7.52709427323299,-13.2145366162732,31.7437651387307,-0.686968505382538,0.275650024414063,0.103435754776001
4.36477831678978,-7.37540833004317,-13.2306358647657,31.6584035381875,-0.692457556724548,0.277140766382217,0.100910730659962
4.49005209419141,-7.20600361401349,-13.212106541029,31.5477278078279,-0.698114991188049,0.278625816106796,0.0984411835670471
4.55738425206119,-7.04057320217219,-13.1656313519844,31.4288102677608,-0.70388263463974,0.280114620923996,0.0960583612322807
4.56337821270241,-6.902466131626,-13.0966779669312,31.3257876464155,-0.709719836711884,0.281595528125763,0.0937368273735046
4.51183015118787,-6.80973236723048,-13.0169411229821,31.2616192708347,-0.71562659740448,0.28306856751442,0.0914765894412994
4.41632637830433,-6.766346213174,-12.9332554067613,31.2598531687545,-0.721602916717529,0.284533739089966,0.0892776474356651
4.28825541927012,-6.7761163776371,-12.8535185628122,31.3299085512693,-0.727645099163055,0.285980850458145,0.0871334671974182
4.14559915600893,-6.825629583984,-12.7844132980563,31.4658984114451,-0.733740150928497,0.287423729896545,0.0850353315472603
4.00314269143578,-6.89816063542193,-12.7288253268461,31.6513391298667,-0.739878594875336,0.288886338472366,0.0829810574650764
3.87706971928198,-6.97234764693834,-12.690855401156,31.8538521683969,-0.746060431003571,0.29036870598793,0.0809706524014473
3.77557198575722,-7.02715992553641,-12.6723260774193,32.0392928868184,-0.752285659313202,0.291870802640915,0.0790041238069534
3.70524284756683,-7.04951538659605,-12.6747561526634,32.1723392435272,-0.758507072925568,0.293402105569839,0.0771069005131722
3.6684798889673,-7.03295578581113,-12.6972343486719,32.2223788024664,-0.764662146568298,0.29495894908905,0.0753109529614449
3.66588250602277,-6.97897148725231,-12.7344448758482,32.1864680601689,-0.770735681056976,0.296528279781342,0.0736228227615356
3.68766056301923,-6.89501431127279,-12.7831982604342,32.0640183159413,-0.776727616786957,0.298110097646713,0.0720425173640251
3.7266213071872,-6.79466313051621,-12.8317997653175,31.8791662982132,-0.782638013362885,0.299704402685165,0.0705700367689133
3.76997762249207,-6.68752251343781,-12.8702253301158,31.6713549534423,-0.788417398929596,0.301293730735779,0.0692206472158432
3.7999474256982,-6.58336262450069,-12.8872358568249,31.4782611260065,-0.793988823890686,0.302874475717545,0.0680306777358055
3.80694037977963,-6.48781372797174,-12.8723516459544,31.3387390616703,-0.799324631690979,0.304460436105728,0.0670212060213089
3.77577178444526,-6.39657032764686,-12.8204087876105,31.2810463937169,-0.804424822330475,0.306051641702652,0.0661922320723534
3.70284526331033,-6.30963242352605,-12.7318629209013,31.3116588297738,-0.809289395809174,0.307648062705994,0.0655437558889389
3.58456443999013,-6.22385369146019,-12.6141561512621,31.4282215670674,-0.813898026943207,0.309232264757156,0.0650699660181999
3.42592428168567,-6.14155247555917,-12.4794388549138,31.6036543737011,-0.81824779510498,0.310765743255615,0.0647083818912506
3.23771391755116,-6.06984940416049,-12.343810280349,31.7967482011369,-0.822356104850769,0.312227427959442,0.0644023269414902
3.03511804787771,-6.02265454192348,-12.2251922324933,31.9839550216387,-0.826223015785217,0.313617318868637,0.0641518011689186
2.83332137295642,-6.01536831757811,-12.1395320801365,32.1234770859749,-0.829848527908325,0.3149354159832,0.0639568120241165
2.64710899570231,-6.06355675586222,-12.0941200490112,32.2064838837445,-0.833183228969574,0.316192626953125,0.0638173595070839
2.48986742821414,-6.17483727313684,-12.0933606504974,32.2241449045466,-0.836181342601776,0.31741002202034,0.0637399852275848
2.366991235069,-6.3488786773863,-12.1289005009433,32.1917663664095,-0.838846445083618,0.318597763776779,0.0637312307953835
2.27947940970709,-6.56862457980212,-12.190563660264,32.1358398005363,-0.841178596019745,0.319755882024765,0.0637910962104797
2.22493436787193,-6.80857319517554,-12.258909526506,32.0875663436774,-0.843177795410156,0.320884346961975,0.0639195889234543
2.19396557122559,-7.03726128201521,-12.3157125353383,32.0793245339698,-0.844802618026733,0.32193449139595,0.0641559436917305
2.1783812735584,-7.21991367867282,-12.343810280349,32.1358398005363,-0.84605884552002,0.322848170995712,0.0645139738917351
2.1739857024215,-7.33020061990035,-12.3299892273978,32.2635878510045,-0.846993744373322,0.323615968227386,0.0649682506918907
2.17358610504542,-7.35205929293644,-12.2727305794572,32.4578590798271,-0.847607314586639,0.324237853288651,0.0655187740921974
2.1817778512551,-7.29244473011075,-12.1735531335548,32.7033472689757,-0.847899556159973,0.324713855981827,0.0661655440926552
2.20195751874723,-7.17321560445936,-12.0397471154231,32.9617868733791,-0.84785670042038,0.325075924396515,0.0669085681438446
2.24331584717169,-7.03030624968555,-11.8875636532574,33.210807266688,-0.84751433134079,0.325373500585556,0.0677325800061226
2.31304558929796,-6.90644043581438,-11.7297606420895,33.4162638086852,-0.846921801567078,0.325623989105225,0.0686223357915878
2.41913869264767,-6.84334835682386,-11.5801591348707,33.5587293764885,-0.846079170703888,0.325827419757843,0.0695778280496597
2.56379294278927,-6.86686298993844,-11.4504538687135,33.6311395617769,-0.844986438751221,0.325983792543411,0.0705990642309189
2.74201337252173,-6.98542973155843,-11.3473275505394,33.6382039700977,-0.843627631664276,0.326073467731476,0.0716177448630333
2.94181206056261,-7.18778805315009,-11.2745771729172,33.5964062208662,-0.842007040977478,0.326094269752502,0.0725713819265366
3.14900330006101,-7.4391627930651,-11.2312914576306,33.528705641125,-0.84014505147934,0.32606366276741,0.0734657868742943
3.34220863139654,-7.69550541321558,-11.2139771715159,33.4710129731716,-0.838041722774506,0.325981616973877,0.0743009671568871
3.49625341987606,-7.90647472721539,-11.2192929611125,33.4415779385015,-0.835696995258331,0.325848162174225,0.0750769227743149
3.59135759538352,-8.03000934907086,-11.2438974729597,33.4610050613838,-0.83313775062561,0.325658917427063,0.0758321657776833
3.61133746418761,-8.0409386855889,-11.2809561204332,33.5363587501392,-0.830440282821655,0.325398653745651,0.0766052156686783
3.54860067614277,-7.93528843258114,-11.3278869485861,33.6599858957536,-0.82765406370163,0.325056433677673,0.0773960724473
3.39715327060779,-7.73442047506013,-11.3772478519831,33.8207011850523,-0.824779033660889,0.324632287025452,0.0782047361135483
3.17098115574551,-7.47393795471342,-11.4256974771636,33.987303481285,-0.821815192699432,0.324126213788986,0.0790312066674232
2.8806736620221,-7.20368526990361,-11.4683756736392,34.139776960876,-0.818753898143768,0.323554903268814,0.0798347964882851
2.55140542413073,-6.97002930282846,-11.4995110127051,34.2351464732071,-0.815627753734589,0.322983771562576,0.0805355831980705
2.20755188201237,-6.81105713529327,-11.5163696597115,34.2639928071838,-0.812478244304657,0.322461515665054,0.0810943320393562
1.87688505330471,-6.74531552017716,-11.5191034943612,34.2015905336832,-0.809305310249329,0.321988135576248,0.0815110430121422
1.58597816351719,-6.77214207344872,-11.5098388324928,34.0638345714272,-0.806109011173248,0.321563601493835,0.081785723567009
1.35980604865491,-6.87083729412682,-11.4966252983526,33.8501362197224,-0.802858829498291,0.321198850870132,0.0819379910826683
1.21635059064156,-7.00513565649248,-11.4852343206456,33.5940514180926,-0.799538016319275,0.320872783660889,0.0819874629378319
1.16739991207154,-7.13794365478749,-11.4867531176732,33.3314909088354,-0.796160399913788,0.320553451776505,0.0819341465830803
1.21395300638507,-7.23183659123796,-11.50968695279,33.0913010259275,-0.79272598028183,0.320240825414658,0.0817780420184135
1.35441148407781,-7.26793652094907,-11.5576809388622,32.9029168040389,-0.789234757423401,0.31993493437767,0.0815191492438316
1.57498923567494,-7.24094437166966,-11.6313425947009,32.7945958764529,-0.785664916038513,0.319610327482224,0.0811356753110886
1.84991223041919,-7.16361103600411,-11.7264192886288,32.7710478487169,-0.782010674476624,0.319261223077774,0.0806741267442703
2.15600382049782,-7.06309425923968,-11.8316719226416,32.8222648090428,-0.778288006782532,0.318907231092453,0.0802028104662895
2.45710044337543,-6.97466599104823,-11.9322162858689,32.9364727435628,-0.774496912956238,0.318548321723938,0.0797217264771461
2.72043511421332,-6.92664314877198,-12.0142313253594,33.0830592162198,-0.770637392997742,0.318184524774551,0.0792308747768402
2.91463943898905,-6.94105000145486,-12.0632884693509,33.2396536006647,-0.766729056835175,0.31784200668335,0.078757144510746
3.01833495808227,-7.0203704892146,-12.0725531312193,33.3697564539065,-0.762764692306519,0.317551255226135,0.0782889127731323
3.01913415283444,-7.15500004359596,-12.0376207995844,33.465714666931,-0.758717358112335,0.317316651344299,0.0777876675128937
2.91763641930967,-7.31364101911544,-11.9653260610706,33.5204638314174,-0.754587054252625,0.317138224840164,0.0772534161806107
2.73202343811969,-7.46383659823462,-11.8658448557627,33.5475440633138,-0.750373780727386,0.317015945911407,0.0766861587762833
2.49026702559022,-7.56882446721098,-11.7536057554229,33.5593180771819,-0.746048510074615,0.316920012235641,0.0760553777217865
2.23132792588924,-7.6026060528122,-11.6445561288411,33.5852209076916,-0.741590917110443,0.316803932189941,0.0753712505102158
1.99696406481728,-7.55491440255165,-11.5493275552104,33.6464457798053,-0.737009644508362,0.31665101647377,0.0746744722127914
1.82773457604666,-7.43287014476683,-11.4764252978855,33.7530006053111,-0.732304751873016,0.316461235284805,0.0739650428295136
1.75181107459112,-7.2623062566822,-11.4275200335968,33.9090062890625,-0.727476239204407,0.316234588623047,0.0732429623603821
1.78537725418199,-7.08114422409524,-11.3947140178006,34.1021001164983,-0.722555339336395,0.315984904766083,0.0725234970450401
1.92823331613122,-6.92846470485832,-11.371628302981,34.3004922501747,-0.717603802680969,0.315715104341507,0.0718022882938385
2.15460522968154,-6.84318276081601,-11.3438343173759,34.4688606484877,-0.712652146816254,0.315414249897003,0.0710597187280655
2.42972802311383,-6.84947540911428,-11.3040418352527,34.5765928753802,-0.707700431346893,0.315082371234894,0.0702957883477211
2.70644920605046,-6.9519793379729,-11.2457200293928,34.592487794102,-0.702748596668243,0.314719468355179,0.0695104971528053
2.93461930779314,-7.1376124627718,-11.1668944636603,34.5018278873182,-0.697808980941772,0.314313888549805,0.0686210170388222
3.06988301959682,-7.3792170382237,-11.0768297999235,34.3063792571088,-0.692915797233582,0.313879460096359,0.0675663203001022
3.08127154481515,-7.63638763841343,-10.9837275421315,34.0349882374505,-0.688090801239014,0.313441634178162,0.0663681998848915
2.96099273461454,-7.8667316853316,-10.9020162620465,33.7170898630136,-0.683334052562714,0.313000380992889,0.06502665579319
2.7120435693156,-8.03646759337697,-10.8420237794562,33.4009575906568,-0.678645491600037,0.312555700540543,0.0635416954755783
2.36299526130818,-8.12257751745853,-10.8142297938511,33.1413405848666,-0.674073815345764,0.31210470199585,0.0619264021515846
1.95460674295262,-8.1184376172623,-10.8219756586919,32.9676738803131,-0.669648110866547,0.311618328094482,0.0601669698953629
1.53702748494717,-8.03696438140052,-10.8614643814095,32.9223439269211,-0.665348708629608,0.311070412397385,0.0582365170121193
1.15361380259672,-7.89769813879939,-10.924494458055,33.0053507246908,-0.661175668239594,0.310460954904556,0.0561350435018539
0.845524225637678,-7.73293011098948,-10.9984598732992,33.2090411646078,-0.657128989696503,0.309789955615997,0.0538625530898571
0.633338018938261,-7.57346115543075,-11.0715140103269,33.5069237154691,-0.653224647045136,0.309087932109833,0.0514582842588425
0.525646526084226,-7.44247471322208,-11.1307470944033,33.8589667301234,-0.649507701396942,0.308415204286575,0.048991996794939
0.509063234976833,-7.35586800111697,-11.1712989750403,34.2198402551787,-0.646007180213928,0.307801574468613,0.0464942120015621
0.565806062380443,-7.31827770733522,-11.1889170205605,34.5501013441771,-0.642723083496094,0.307247012853622,0.0439649298787117
0.66011104313574,-7.32473595164133,-11.1860313062081,34.8191375610617,-0.639655470848084,0.306751549243927,0.0414041541516781
0.760809581908344,-7.3603390933289,-11.1703876968238,35.0022234767097,-0.636860966682434,0.306285381317139,0.0387820936739445
0.84132845318882,-7.41233623979353,-11.1462388240849,35.1017138938946,-0.634365022182465,0.305804908275604,0.0360537022352219
0.879689801292669,-7.47079163056428,-11.1223937107515,35.1217297174702,-0.632136404514313,0.305296331644058,0.0332037210464478
0.870099464266707,-7.52725986924084,-11.1014343117706,35.0752223626915,-0.630175113677979,0.304759651422501,0.0302321538329124
0.817152811935873,-7.58422489594095,-11.0854869429808,34.991038163535,-0.628481149673462,0.304194867610931,0.0271390043199062
0.734236356398907,-7.64913853101782,-11.0702989727048,34.8909590456567,-0.627095937728882,0.303612172603607,0.0239504314959049
0.642328959900101,-7.73160534292669,-11.0538959648067,34.793234730552,-0.626048505306244,0.303033351898193,0.0207754299044609
0.563008880747871,-7.84122990012283,-11.0309621296899,34.7102279327824,-0.62532651424408,0.302470028400421,0.0176968388259411
0.515456792994141,-7.98463604292019,-10.9984598732992,34.649591761362,-0.624929964542389,0.301922202110291,0.0147146582603455
0.509462832352915,-8.16132698329523,-10.9547185189043,34.6007296038097,-0.624858915805817,0.301389873027802,0.0118288919329643
0.54922277127305,-8.36451328492614,-10.9029275402631,34.5671736642858,-0.625119149684906,0.300890475511551,0.0090460814535617
0.625745668792708,-8.57813213505154,-10.8464282908363,34.532440323375,-0.625667750835419,0.300444394350052,0.006359688937664
0.726044610189231,-8.78727989296501,-10.7912959587343,34.4876990706765,-0.626456081867218,0.300054490566254,0.0037566374521702
0.828341538466163,-8.96744834950489,-10.7425425741483,34.4364821103506,-0.627484142780304,0.299720793962479,0.0012369302567094
0.91385537694766,-9.10340267194904,-10.7039651296472,34.3817329458642,-0.628751933574677,0.299443304538727,-0.0011994307860732
0.960608269949227,-9.17825206749685,-10.6770824222587,34.3293385841514,-0.630303740501404,0.299280852079391,-0.0035713356919586
0.96360525026984,-9.18620067587361,-10.6628057301992,34.311088862656,-0.632167935371399,0.299261808395386,-0.005936911329627
0.921048129717132,-9.12410217293018,-10.6552117450612,34.3334594890052,-0.634328544139862,0.299355626106262,-0.008335392922163
0.840729057124697,-8.99907718700407,-10.6535410683308,34.4111679805343,-0.636785566806793,0.299562335014343,-0.0107667790725827
0.741029511792297,-8.82271743864473,-10.6530854292225,34.5501013441771,-0.639539003372192,0.299881935119629,-0.0132310669869184
0.644726544156592,-8.61356968073126,-10.6518703916005,34.7467273757733,-0.642591714859009,0.300286799669266,-0.0157456938177347
0.574996802030324,-8.39299579827619,-10.6509591133839,34.985151156601,-0.6458899974823,0.300779104232788,-0.0182983037084341
0.547424583080682,-8.18467602040196,-10.6497440757618,35.237115053377,-0.649377167224884,0.301388651132584,-0.0208591036498547
0.575795996782487,-8.0116281921996,-10.6498959554646,35.4690631265773,-0.653053164482117,0.302115440368652,-0.0234280899167061
0.652918290366268,-7.89620777472874,-10.6520222713032,35.6545038449989,-0.656918048858643,0.302959471940994,-0.0260052625089884
0.765604750421326,-7.85364960071151,-10.6550598653584,35.767534378132,-0.660944223403931,0.303891688585281,-0.0285688191652298
0.889080339630591,-7.89107429848542,-10.6570343014943,35.7934372086417,-0.665062606334686,0.304872870445251,-0.0311231166124344
0.999569014117199,-8.00566673591703,-10.6553636247639,35.7386880441553,-0.669231832027435,0.305892825126648,-0.0336943119764328
1.06630177592285,-8.18268886830777,-10.6442764064625,35.6197705040882,-0.673451840877533,0.306951552629471,-0.036282405257225
1.07888909326943,-8.39365818230759,-10.6237726465898,35.4749501335113,-0.677722692489624,0.30804905295372,-0.0388873890042305
1.03333499239611,-8.60197796018182,-10.5947636233626,35.3260088580807,-0.682052314281464,0.309172987937927,-0.0414787493646145
0.944624374905956,-8.769726716133,-10.562261366972,35.2118009235607,-0.686442971229553,0.310293555259705,-0.0440324991941452
0.846123621701801,-8.85683021626166,-10.5334042234475,35.1599952625414,-0.690888822078705,0.311393320560455,-0.0465551801025867
0.768601730741939,-8.83728988733546,-10.5176087343605,35.1658822694754,-0.695389807224274,0.312472283840179,-0.0490467883646488
0.757013406835568,-8.69620208864798,-10.5204944487129,35.231228046443,-0.699945986270905,0.313530445098877,-0.0515073202550411
0.835534291235634,-8.44267460063094,-10.5457064793711,35.3277749601609,-0.704528331756592,0.314528584480286,-0.0539672933518887
1.01635210391263,-8.10386516857158,-10.5900553525771,35.4296201801194,-0.709063410758972,0.315368592739105,-0.0564383342862129
1.28667972883195,-7.72647186668337,-10.6441245267597,35.4931998550068,-0.713506877422333,0.31599161028862,-0.0589015446603298
1.61015380477013,-7.36563816558007,-10.6910553549126,35.5085060730352,-0.717858791351318,0.31639763712883,-0.0613569207489491
1.93502647152461,-7.07551395982836,-10.7107997162714,35.4590552147895,-0.722119092941284,0.316586703062058,-0.0638044625520706
2.2013581226831,-6.90147255557891,-10.685739565316,35.3536777906706,-0.726257264614105,0.316593647003174,-0.0662405341863632
2.35460371641046,-6.86984371807972,-10.6015982099868,35.2135670256409,-0.730239927768707,0.316480994224548,-0.0686440616846085
2.35540291116263,-6.98013065930726,-10.4565530938509,35.0616822467433,-0.734064161777496,0.316276341676712,-0.0709976106882095
2.19276677909735,-7.21080589824112,-10.2591094802626,34.9351115976619,-0.737729966640472,0.315979689359665,-0.0733011662960052
1.8870747863948,-7.51169384450302,-10.0320493246361,34.8621127116801,-0.741237342357636,0.315591037273407,-0.0755547359585762
1.48607881949675,-7.8263262594164,-9.80392601109032,34.8468064936516,-0.744562327861786,0.315111130475998,-0.0777365118265152
1.05671143889689,-8.09359821608493,-9.61179818709868,34.8921364470435,-0.747708559036255,0.314569741487503,-0.0798465013504028
0.669101984097579,-8.2656524682402,-9.48558615410496,34.9745545441198,-0.750703632831573,0.31399592757225,-0.0819064900279045
0.387785431336017,-8.31235054245366,-9.44822374722596,35.0728675599179,-0.753547549247742,0.313389718532562,-0.0839164853096008
0.249924336587809,-8.23220207465467,-9.50791247041071,35.1523421535271,-0.75624030828476,0.312751084566116,-0.0858764797449112
0.265109036878916,-8.04640335384792,-9.65538766179086,35.1864867937444,-0.758735418319702,0.312074959278107,-0.0877966433763504
0.408164897516187,-7.80148685823903,-9.86710796743856,35.1658822694754,-0.7609783411026,0.311368614435196,-0.0897176638245583
0.624946474040544,-7.55292725045746,-10.1078372963135,35.0899398800265,-0.762961149215698,0.310644388198853,-0.0916700586676598
0.852117582343028,-7.35454323305418,-10.3380869256979,34.9686675371858,-0.764683783054352,0.309902310371399,-0.0936538279056549
1.02294546061798,-7.25170811217986,-10.5244433209847,34.8238471666089,-0.766146302223206,0.309142351150513,-0.0956689640879631
1.09087701455188,-7.26628056087058,-10.6423019703266,34.6807928981123,-0.767309427261353,0.308355093002319,-0.0976849496364594
1.0357325766526,-7.39710140707141,-10.6852839262077,34.5501013441771,-0.768163025379181,0.307570308446884,-0.0996407493948936
0.86850107476238,-7.62181518972271,-10.6623500910909,34.4406030152044,-0.768736124038696,0.306827247142792,-0.10150583833456
0.633138220250221,-7.8950486026738,-10.5979530971206,34.3558301153545,-0.769028723239899,0.30612587928772,-0.10328021645546
0.391182009032712,-8.16629486353071,-10.5250508397957,34.2828312293727,-0.769040822982788,0.30546623468399,-0.104963883757591
0.208566008163346,-8.38521278590728,-10.4762974552097,34.2115984454711,-0.768753588199615,0.304870128631592,-0.106561191380024
0.13703807784471,-8.51239051993543,-10.4794869289676,34.1274142463146,-0.768178582191467,0.304324448108673,-0.108080133795738
0.207367216035101,-8.52861892870464,-10.5501109907511,34.0408752443845,-0.767346382141113,0.303794324398041,-0.109524346888065
0.412960066029168,-8.43273884015999,-10.6843726479911,33.9608119500819,-0.766256928443909,0.303279787302017,-0.110893823206425
0.71685387053935,-8.24644333132969,-10.8655651333841,33.9113610918361,-0.764910280704498,0.30278080701828,-0.112188562750816
1.0577104323371,-8.00367958382284,-11.0665019801358,33.9172480987702,-0.7632737159729,0.30231773853302,-0.113417275249958
1.36380202241573,-7.74799934770376,-11.2593892026412,33.9996661958464,-0.761338472366333,0.301910191774368,-0.114610485732555
1.56539889864898,-7.52096722094257,-11.4091425895628,34.1662684920791,-0.759128570556641,0.301557451486588,-0.115789987146854
1.61834555097981,-7.35404644503063,-11.5016373285437,34.4094018784541,-0.756644010543823,0.301259547472,-0.116955772042274
1.506857883053,-7.26495579280779,-11.5307982314737,34.6937443133671,-0.753884792327881,0.301016449928284,-0.118107847869396
1.24991677023242,-7.25915993253307,-11.5042192834907,34.970433639266,-0.750807344913483,0.300775110721588,-0.119213506579399
0.896672689776144,-7.3205960514451,-11.4416448459535,35.1900189979049,-0.747414529323578,0.300487577915192,-0.120229884982109
0.520451760195163,-7.42972382061769,-11.3705651450617,35.2930416192502,-0.743752896785736,0.300158947706223,-0.12114679813385
0.191982717055953,-7.55855751472433,-11.311483940688,35.248889067245,-0.739822447299957,0.299789220094681,-0.121964246034622
-0.0236000673401592,-7.6810985605327,-11.2847531130022,35.048142130795,-0.735623121261597,0.299378395080566,-0.122682228684425
-0.0881350435773642,-7.77764103310875,-11.2955365718982,34.7131714362494,-0.731128811836243,0.298937380313873,-0.123316735029221
0.0065695345540139,-7.83858036399724,-11.3414042421317,34.3040244543351,-0.726352572441101,0.29848650097847,-0.123914256691933
0.233740642856497,-7.86491012924526,-11.4035230405606,33.8813373564727,-0.721333682537079,0.298035234212875,-0.124505311250687
0.545026998824192,-7.86954681746503,-11.4644268013675,33.519875130724,-0.716072142124176,0.297583550214767,-0.125089898705482
0.876892619660097,-7.86755966537084,-11.5016373285437,33.2867496561368,-0.710567891597748,0.297131478786469,-0.12566801905632
1.16600132125525,-7.87600506177115,-11.5023967270575,33.2219925798627,-0.704780280590057,0.296694248914719,-0.126220777630806
1.3632026263516,-7.91044903140377,-11.464123041962,33.3238377998212,-0.698687553405762,0.296265333890915,-0.126724913716316
1.44172351075167,-7.97701862655913,-11.3903095064205,33.5716807917433,-0.69230854511261,0.295822948217392,-0.127176076173782
1.40256296789566,-8.07356109913518,-11.3016117600086,33.9013531800483,-0.685643255710602,0.29536709189415,-0.127574250102043
1.26909744428435,-8.1878223445511,-11.2188373220043,34.2522187933158,-0.678691685199738,0.294897764921188,-0.12791945040226
1.09087701455188,-8.30158680194346,-11.1644643884161,34.5371499289223,-0.67145824432373,0.294379353523254,-0.128228381276131
0.914454773011783,-8.3916710302134,-11.155655365656,34.7172923411032,-0.663979947566986,0.293755918741226,-0.128509029746056
0.787782404793863,-8.4405218525289,-11.200004238862,34.7555578861743,-0.656289517879486,0.293007105588913,-0.128752663731575
0.743826693424869,-8.43389801221493,-11.2918914590319,34.6572448703762,-0.64838695526123,0.292132914066315,-0.12895929813385
0.795774352315499,-8.37130272124795,-11.4174959732146,34.4500222262988,-0.640272200107574,0.291133373975754,-0.12912891805172
0.934434641815871,-8.26018779998117,-11.554643344807,34.1845182135746,-0.631914794445038,0.29000335931778,-0.129286959767342
1.13163594691222,-8.12224632544283,-11.6785771822593,33.9095949897559,-0.623327851295471,0.288790851831436,-0.129491552710533
1.34841752343658,-7.97900577865332,-11.7666674098603,33.675292113782,-0.614554882049561,0.287548899650574,-0.129775390028954
1.54002446526779,-7.86093582505688,-11.8046373355503,33.5210525321108,-0.605595946311951,0.286277502775192,-0.130138471722603
1.67229119675085,-7.79039192571314,-11.7874749291384,33.4486423468223,-0.596451044082642,0.284976661205292,-0.13058078289032
1.72304006351323,-7.77962818520294,-11.7198884614101,33.4515858502893,-0.587159395217896,0.283636182546616,-0.131123408675194
1.68527811147351,-7.83079735162833,-11.6153952259111,33.4992706064549,-0.577786386013031,0.282235026359558,-0.131771430373192
1.5713928592902,-7.92833340025148,-11.4934358245947,33.5669711861961,-0.568358182907104,0.280762255191803,-0.132508859038353
1.4081573311608,-8.04905288997351,-11.3713245435755,33.6228977520693,-0.558874845504761,0.279217898845673,-0.133335694670677
1.22554133029144,-8.16414211542867,-11.2659200298599,33.6464457798053,-0.549336314201355,0.277601957321167,-0.134251922369003
1.0577104323371,-8.24379379520411,-11.1869425844246,33.6411474735647,-0.53973388671875,0.275952219963074,-0.135227769613266
0.928240882486604,-8.26548687223235,-11.1392523577579,33.6158333437484,-0.530099511146545,0.274291217327118,-0.13625231385231
0.852517179719109,-8.21862320201104,-11.1210267934267,33.597583622253,-0.520473897457123,0.272603660821915,-0.137344464659691
0.829740129282449,-8.1089986448149,-11.1263425830233,33.6105350375078,-0.510857045650482,0.270889580249786,-0.138504207134247
0.846523219077883,-7.95201362937391,-11.147453861707,33.675292113782,-0.501248955726624,0.269148975610733,-0.139731541275978
0.880488996044833,-7.77648186105381,-11.1776779225562,33.804217565637,-0.491688907146454,0.267343312501907,-0.141035184264183
0.905663630737984,-7.61535694541659,-11.2100282992442,33.9825938757378,-0.482211738824844,0.265469700098038,-0.142407134175301
0.899270072720676,-7.49298149561607,-11.2408598789045,34.1957035267492,-0.472813099622726,0.263563752174377,-0.143830686807632
0.841728050564902,-7.42790226453135,-11.2691095036179,34.4082244770673,-0.4634929895401,0.261625468730927,-0.145305842161179
0.730040583950048,-7.42508713239792,-11.2911320605181,34.5942538961822,-0.454251408576965,0.259654849767685,-0.146832600235939
0.568403445324975,-7.47277878265847,-11.3066237901996,34.715526239023,-0.445119589567184,0.257698386907578,-0.148376792669296
0.373999321861196,-7.54961533030048,-11.3125470986073,34.7620335938017,-0.436159312725067,0.25580769777298,-0.149878844618797
0.169205666619292,-7.62479591786399,-11.307686948119,34.721413245957,-0.427401095628738,0.253987848758698,-0.151313319802284
-0.023999664716241,-7.67215637610885,-11.2903726620043,34.6101488149041,-0.418844938278198,0.252238839864731,-0.152680218219757
-0.186435998093478,-7.67033482002251,-11.2619711575881,34.457675335313,-0.410490840673447,0.25056067109108,-0.153979539871216
-0.305715814853885,-7.61138264122821,-11.2274944650616,34.2869521342265,-0.40237295627594,0.248960614204407,-0.155227988958359
-0.380040926805093,-7.50093010399283,-11.1934734116433,34.133889953942,-0.39448618888855,0.24745611846447,-0.156421214342117
-0.418002677532861,-7.35851753724256,-11.1671982230658,34.0232142235825,-0.386791318655014,0.246057346463203,-0.157538130879402
-0.432987579135927,-7.21047470622542,-11.1589967191167,33.9719972632565,-0.379288345575333,0.244764298200607,-0.158578738570213
-0.443576909602094,-7.08826485243275,-11.1752478473121,33.987303481285,-0.371977269649506,0.243576988577843,-0.159543037414551
-0.466353960038754,-7.01291866886139,-11.2200523596263,34.0603023672668,-0.364895850419998,0.242481604218483,-0.160419389605522
-0.510109872719707,-7.00033337226485,-11.2880944664629,34.182163410801,-0.35809063911438,0.241426542401314,-0.161225974559784
-0.578241225341648,-7.04620346643907,-11.3690463480341,34.328749883458,-0.351570308208466,0.24037404358387,-0.161992579698563
-0.666152648079636,-7.13993080688168,-11.4471125152528,34.4812233630491,-0.345334887504578,0.23932409286499,-0.162719190120697
-0.758060044578442,-7.25468884032114,-11.5040674037879,34.6248663322391,-0.339384377002716,0.238276705145836,-0.163405805826187
-0.838778714546959,-7.36149826538384,-11.5227486072274,34.7437838723063,-0.333765268325806,0.23728708922863,-0.164069145917892
-0.891725366877792,-7.43502289286887,-11.491309508756,34.835621180477,-0.328484863042831,0.236448988318443,-0.164717197418213
-0.908708255361267,-7.45688156590495,-11.4050418375882,34.8933138484303,-0.323503881692886,0.2358009070158,-0.16534124314785
-0.887329795740893,-7.42492153639007,-11.27032454124,34.916273175473,-0.318822354078293,0.235342860221863,-0.165941283106804
-0.834383143410059,-7.34626343266172,-11.1023455899872,34.9139183726994,-0.314440250396729,0.23507484793663,-0.166517302393913
-0.767050985540282,-7.24425629182665,-10.9247982174605,34.8933138484303,-0.3104048371315,0.234947443008423,-0.167075112462044
-0.705712788311731,-7.14456749510146,-10.7586418226409,34.8485725957318,-0.306732088327408,0.234864756464958,-0.167654693126678
-0.671347413968699,-7.07601074785191,-10.6296959549975,34.8008878395663,-0.303390771150589,0.234780266880989,-0.168290182948112
-0.68513352344352,-7.059451147067,-10.5526929456981,34.7402516681459,-0.300380855798721,0.234693989157677,-0.168981567025185
-0.751466687873093,-7.10349968515487,-10.5329485843392,34.6878573064331,-0.297702372074127,0.23460590839386,-0.169728860259056
-0.867949323000927,-7.20202930982511,-10.5678809159741,34.646648257895,-0.29535385966301,0.234563991427422,-0.170516073703766
-1.02239370885653,-7.33814922827711,-10.6430613688404,34.6278098357061,-0.293299704790115,0.234608933329582,-0.171310499310493
-1.18802682124242,-7.48403931119221,-10.7416312959317,34.6442934551214,-0.291505753993988,0.234733462333679,-0.172095432877541
-1.33847523333721,-7.60972668114972,-10.8426312982673,34.6984539189144,-0.28997203707695,0.234937593340874,-0.172870859503746
-1.44197095374238,-7.68755680483882,-10.9296583679489,34.8002991388729,-0.288698524236679,0.235221311450005,-0.17363677918911
-1.47553713333325,-7.69914852538826,-10.9945110010275,34.9515952170771,-0.287690311670303,0.235570818185806,-0.174341604113579
-1.42918383770777,-7.63854038651547,-11.0339997237451,35.1499873507535,-0.286914736032486,0.235986113548279,-0.174945369362831
-1.30590804718654,-7.51550255268355,-11.0545034836177,35.3784032197934,-0.286333978176117,0.236481010913849,-0.175459697842598
-1.12529003319758,-7.34858177677161,-11.0678688974606,35.6233027082486,-0.285948038101196,0.237055495381355,-0.175884589552879
-0.914902014690535,-7.16576378410615,-11.0850313038725,35.8652586932367,-0.285756915807724,0.237709581851959,-0.176220044493675
-0.714703729273571,-6.99470310799798,-11.1157110038301,36.088376256036,-0.285781711339951,0.238408386707306,-0.176486402750015
-0.563056525050541,-6.85808640152243,-11.1615786740637,36.2596881578159,-0.285996973514557,0.239061817526817,-0.17668728530407
-0.490130003915619,-6.77114849740163,-11.2176222843822,36.3621220784678,-0.286356210708618,0.239614650607109,-0.17680598795414
-0.51970020974567,-6.73554535571406,-11.2722989773758,36.3921458138313,-0.286859422922134,0.240066885948181,-0.176842510700226
-0.651966941228734,-6.74316277207512,-11.3075350684162,36.3350418465714,-0.287506580352783,0.240418523550034,-0.176796853542328
-0.872544692825868,-6.77280445748012,-11.3055606322803,36.2067050954098,-0.288295537233353,0.240686997771263,-0.176737308502197
-1.14946567445053,-6.80625485106565,-11.2551365709639,36.016554771441,-0.289176881313324,0.240939170122147,-0.176726371049881
-1.4425703498065,-6.8165218035523,-11.1489726587346,35.7893163037879,-0.290103375911713,0.241224437952042,-0.176758214831352
-1.7079030075248,-6.79482872652406,-10.9922328054861,35.5544247271206,-0.291075021028519,0.241542816162109,-0.176832854747772
-1.90630310474939,-6.72991509144719,-10.7966117483309,35.3454359809629,-0.292091816663742,0.24189430475235,-0.17695027589798
-2.00999862384261,-6.62906712266706,-10.5842839238722,35.1917850999851,-0.293137073516846,0.242249831557274,-0.177090853452682
-2.01339520153931,-6.51066597705492,-10.3789425657404,35.1146653091494,-0.294195502996445,0.24253237247467,-0.17725096642971
-1.92548377880132,-6.39226483144278,-10.2032177496469,35.1340924320317,-0.295268565416336,0.242693975567818,-0.177446588873863
-1.77743295096302,-6.30085583511005,-10.0742718820035,35.2483003665516,-0.296356290578842,0.242734655737877,-0.177677720785141
-1.60880285825652,-6.25713848903787,-9.99529443656816,35.4525795071621,-0.297458648681641,0.242654398083687,-0.177944362163544
-1.46075203041823,-6.27386368583064,-9.96825984947685,35.7233818261269,-0.298598170280457,0.242485180497169,-0.178255945444107
-1.37184161424003,-6.35401215362962,-9.97858766926454,36.0383366970968,-0.299792319536209,0.242272779345512,-0.178673520684242
-1.36245107590211,-6.48698574793249,-10.0091154895193,36.3650655819348,-0.301035970449448,0.242031008005142,-0.179248660802841
-1.43357940884466,-6.65026341167175,-10.0394914300714,36.6635368334896,-0.302329152822495,0.241759866476059,-0.179981380701065
-1.56844352327226,-6.8151970354895,-10.055590678564,36.9131459274919,-0.30367186665535,0.241459339857101,-0.180871665477753
-1.73068005796146,-6.94899860983162,-10.0469335355066,37.0885787341256,-0.305059760808945,0.24110110104084,-0.18189263343811
-1.87793169104759,-7.02467598541868,-10.0113936850607,37.1815934436831,-0.30646738409996,0.2406917065382,-0.182997047901154
-1.96864029541815,-7.01871452913611,-9.95793202968916,37.191601355471,-0.307873666286469,0.240266010165215,-0.184164568781853
-1.97143747705072,-6.92167526853651,-9.89657262977404,37.1297877826638,-0.309278607368469,0.239824026823044,-0.185395196080208
-1.8809286713682,-6.73653893176116,-9.84052901945553,37.0155798481438,-0.310682237148285,0.239365756511688,-0.186688914895058
-1.70850240358892,-6.48284584773626,-9.80271097346824,36.8666385727132,-0.312059819698334,0.238947868347168,-0.188048645853996
-1.48732525592766,-6.18841614578047,-9.78919367992258,36.7012136778673,-0.313388854265213,0.238609611988068,-0.189408972859383
-1.26474951745012,-5.88968094762061,-9.79739518387163,36.5463853955026,-0.314671486616135,0.23833355307579,-0.190701603889465
-1.09352204179908,-5.62356816300703,-9.81972150017738,36.40921813394,-0.315907746553421,0.238119676709175,-0.191926538944244
-1.01040578757408,-5.42137543742322,-9.84235157588865,36.3003085056606,-0.317097634077072,0.237967997789383,-0.193083763122559
-1.04197398028454,-5.30612061596021,-9.84948992191838,36.2108260002636,-0.318276762962341,0.237873420119286,-0.194176912307739
-1.18163326322511,-5.28873303513605,-9.82913804174851,36.1443028219092,-0.319497436285019,0.237859934568405,-0.19522924721241
-1.40321000826245,-5.36441041072311,-9.77172751410516,36.0966180657436,-0.320776343345642,0.23795659840107,-0.196260377764702
-1.66274850402756,-5.51344681778735,-9.67832149690764,36.0601186227527,-0.322113513946533,0.238163411617279,-0.197270303964615
-1.90650290343743,-5.7076909349944,-9.55772901291605,36.0430463026441,-0.323508948087692,0.238480374217033,-0.198259010910988
-2.08652152136227,-5.91385796476659,-9.42528991210917,36.0389253977902,-0.324949562549591,0.238844275474548,-0.199263572692871
-2.1712361650916,-6.09899430154193,-9.29740720238509,36.0630621262197,-0.326399773359299,0.239159926772118,-0.200311586260796
-2.15405347792009,-6.23412064394684,-9.19185080896676,36.1225208962533,-0.32783704996109,0.23939536511898,-0.201393604278564
-2.05335493914748,-6.30532692732197,-9.12046734866947,36.2255435175986,-0.329261362552643,0.239550590515137,-0.202509626746178
-1.90850089031784,-6.30764527143186,-9.08826885168431,36.3850814055105,-0.330672740936279,0.239625602960587,-0.203659653663635
-1.77123919163376,-6.25200501279455,-9.09054704722571,36.5911266482011,-0.332043558359146,0.239662542939186,-0.204800084233284
-1.68812293740875,-6.16274876456386,-9.1142402808563,36.8436792456705,-0.333350569009781,0.239731892943382,-0.205914214253426
-1.69351750198585,-6.06322556384652,-9.14279366497521,37.1250781771166,-0.334598153829575,0.239861994981766,-0.207028910517693
-1.79401624207042,-5.98390507608678,-9.15934855257608,37.4188398231241,-0.335786283016205,0.240052849054337,-0.208144187927246
-1.96983908754639,-5.94730835835211,-9.14735005605802,37.6996500538767,-0.336914986371994,0.240304455161095,-0.209260031580925
-2.17822911917303,-5.96800785933326,-9.10041922790512,37.9480817464923,-0.337977707386017,0.240611732006073,-0.210411310195923
-2.36803787281187,-6.04517559899096,-9.01840418841462,38.1435303767017,-0.33899262547493,0.240912914276123,-0.211630016565323
-2.48651849482011,-6.17053177693277,-8.90768388510244,38.2830524410379,-0.33998441696167,0.241151332855225,-0.21291321516037
-2.49830661741453,-6.32403927620893,-8.78542072438049,38.3525191228593,-0.34095311164856,0.241326987743378,-0.214260920882225
-2.39640928651368,-6.47969952358713,-8.66832147355238,38.3654705381141,-0.341898709535599,0.241439864039421,-0.215673133730888
-2.20620093549876,-6.61432907796849,-8.57142222319138,38.3260275916562,-0.342798680067062,0.241495788097382,-0.217148393392563
-1.98022861932452,-6.70640045833261,-8.50824026684314,38.2577383112216,-0.343594878911972,0.241505667567253,-0.218681618571281
-1.78422610635641,-6.7474682682792,-8.48226883767115,38.1659010030509,-0.344251722097397,0.241474583745003,-0.220269158482552
-1.68952152822504,-6.73902287187889,-8.4904703416202,38.0687653886396,-0.344769209623337,0.24140253663063,-0.221911028027534
-1.74486576481236,-6.69083443359479,-8.5240357559302,37.9745732776953,-0.345147341489792,0.241289526224136,-0.223607212305069
-1.97063828229856,-6.62244328235309,-8.56823274943342,37.8956873847795,-0.345399916172028,0.2410948574543,-0.225357711315155
-2.3476584066317,-6.55206497901721,-8.61091094590903,37.8344625126657,-0.34555384516716,0.240841060876846,-0.227125465869904
-2.82098149860055,-6.49957104452903,-8.6396162097307,37.7873664571936,-0.345622181892395,0.240591362118721,-0.228873416781425
-3.31048828430071,-6.47638760343014,-8.64964027011288,37.7608749259905,-0.345604926347733,0.240345761179924,-0.230601564049721
-3.72247317904101,-6.48632336390109,-8.64371696170523,37.7543992183631,-0.345502108335495,0.240104243159294,-0.232309907674789
-3.97641731154097,-6.51944256547092,-8.62533951767125,37.7667619329245,-0.345275193452835,0.239882081747055,-0.234005719423294
-4.01697644521327,-6.56663742770793,-8.60848087066486,37.7973743689814,-0.344913274049759,0.239652395248413,-0.235739842057228
-3.82936547714288,-6.60803642967022,-8.60240568255446,37.8427043223734,-0.34444397687912,0.239373028278351,-0.237555891275406
-3.43815964595884,-6.62443043444728,-8.61577109639735,37.9033404937937,-0.343867301940918,0.239043995738029,-0.239453852176666
-2.90589594101793,-6.60373093346614,-8.65176658595152,37.9733958763086,-0.343183249235153,0.238665282726288,-0.241433724761009
-2.32208417456247,-6.54014206645207,-8.70583576013415,38.039919054663,-0.342381656169891,0.238222375512123,-0.243416309356689
-1.77463576933045,-6.43366383340506,-8.76992899469895,38.0934908177625,-0.341458886861801,0.237705811858177,-0.245287507772446
-1.34566798610668,-6.29704712692952,-8.82870643966714,38.1335224649138,-0.340421468019485,0.237120687961578,-0.247012466192245
-1.08572989296549,-6.1440364156769,-8.86819516238479,38.1399981725413,-0.339269429445267,0.236467003822327,-0.248591169714928
-1.01560055346314,-5.99632477667546,-8.87761170395592,38.117627546192,-0.338002741336823,0.235744759440422,-0.250023603439331
-1.11430110535534,-5.87328694284355,-8.85315907181153,38.0622896810122,-0.336589455604553,0.234936520457268,-0.251407891511917
-1.33987382415349,-5.79015774690327,-8.79696358179026,37.9839924887898,-0.33502009510994,0.234019041061401,-0.2528435587883
-1.63197950606926,-5.75670735331774,-8.72163124922121,37.8915664799257,-0.333317220211029,0.232986494898796,-0.254332035779953
-1.92848075912193,-5.77873162236168,-8.64265380378591,37.7973743689814,-0.331480830907822,0.231838896870613,-0.2558733522892
-2.18142589818169,-5.85060028976821,-8.58190192268183,37.713190169825,-0.329510897397995,0.230576232075691,-0.25746750831604
-2.35764834103375,-5.96436474716058,-8.55486733559052,37.6519652977112,-0.327417612075806,0.229170903563499,-0.259071618318558
-2.4507545296608,-6.10329979774601,-8.57354853903002,37.6260624672015,-0.325197368860245,0.227635994553566,-0.260642796754837
-2.47293218403333,-6.25101143674745,-8.63916057062242,37.6319494741355,-0.322836339473724,0.22601218521595,-0.2621810734272
-2.44176358869896,-6.3872969512073,-8.74213500909383,37.6719811212868,-0.320334523916245,0.224299475550652,-0.263686418533325
-2.38681894948771,-6.49245041619151,-8.86303125249094,37.7467461093489,-0.317691922187805,0.222497880458832,-0.265158832073212
-2.32827793389174,-6.55040901893871,-8.97937110480525,37.8379947168261,-0.314917236566544,0.22064808011055,-0.26659032702446
-2.28052604744996,-6.54924984688377,-9.06214554280955,37.9492591478791,-0.312057733535767,0.218775510787964,-0.267965644598007
-2.24616067310693,-6.48400501979121,-9.08887637049535,38.0646444837858,-0.309151887893677,0.216864913702011,-0.269277513027191
-2.21918785022141,-6.357986457818,-9.04726133193905,38.1788524183058,-0.306199729442596,0.214916288852692,-0.270525932312012
-2.19341381946414,-6.18560101364704,-8.93198463754407,38.2842298424247,-0.303201258182526,0.212929636240005,-0.271710902452469
-2.16664079526666,-5.9890385523301,-8.75367786650361,38.375478449902,-0.300158649682999,0.210879534482956,-0.272859305143356
-2.14326434876588,-5.79479443512305,-8.53269289898753,38.4437677303366,-0.297084242105484,0.208755075931549,-0.274077236652374
-2.13607159599641,-5.63267594343873,-8.29773499881752,38.4820332754077,-0.293988227844238,0.206570789217949,-0.275443881750107
-2.16124623068956,-5.53464310679204,-8.0753831139766,38.4902750851153,-0.290870606899261,0.204326689243317,-0.276959240436554
-2.23577114132881,-5.51626194992078,-7.89343123006989,38.4667270573793,-0.287731379270554,0.202022761106491,-0.278623312711716
-2.37083505444444,-5.58912419337441,-7.76737107677893,38.4196310019071,-0.284564733505249,0.199684455990791,-0.280447721481323
-2.56983454773316,-5.74693718885464,-7.70084776696997,38.3584061297933,-0.281396836042404,0.197354629635811,-0.28234601020813
-2.8177847195919,-5.9691670313882,-7.68976054866847,38.303656965307,-0.278259634971619,0.195050731301308,-0.284220069646835
-3.09031013007966,-6.22700001560933,-7.71284626348802,38.2665688216226,-0.275153160095215,0.192772760987282,-0.286069869995117
-3.35504339173383,-6.48218346370486,-7.74960115155599,38.2712784271699,-0.27207738161087,0.190520718693733,-0.287895441055298
-3.575820942019,-6.70060459805789,-7.77238310697002,38.333091999977,-0.269075900316238,0.188320755958557,-0.289677172899246
-3.72527036067358,-6.85725842148319,-7.76478912183201,38.4608400504452,-0.26618218421936,0.186226651072502,-0.291438311338425
-3.79100412903903,-6.93773808129787,-7.7117831055687,38.6486355716404,-0.263386011123657,0.18426601588726,-0.293221712112427
-3.77182345498711,-6.94469311362754,-7.6126056596663,38.8852932503879,-0.260687410831451,0.182438850402832,-0.295027375221252
-3.69370216796312,-6.89716705937483,-7.47606580688489,39.1472650589517,-0.258086383342743,0.180745169520378,-0.296855300664902
-3.58661007117321,-6.82082729975637,-7.32069287096121,39.4057046633551,-0.25560399889946,0.179188594222069,-0.298717826604843
-3.49250488910596,-6.7468058842478,-7.16653497265962,39.6423623421026,-0.253252595663071,0.177732065320015,-0.300635308027267
-3.44535239872831,-6.69977661801865,-7.03622218769138,39.826036958444,-0.251023471355438,0.176334887742996,-0.302615731954575
-3.47212542292579,-6.69563671782242,-6.94706880217114,39.9420109950442,-0.248916625976563,0.174997076392174,-0.304659098386765
-3.57861812365158,-6.73289581958848,-6.90818759826454,39.9908731525965,-0.246932044625282,0.173718631267548,-0.306765407323837
-3.75843694288837,-6.79764385865749,-6.91927481656603,39.9861635470493,-0.245108261704445,0.172459572553635,-0.308889627456665
-3.9824112721822,-6.86636620191489,-6.97273647193762,39.9390674915771,-0.24348159134388,0.171205386519432,-0.310959786176682
-4.21737452931828,-6.9132298721362,-7.05535903023916,39.8754878166898,-0.242049857974052,0.169981494545937,-0.312949031591415
-4.42017019767977,-6.91521702423039,-7.14770188951736,39.8136742438826,-0.240813076496124,0.168787911534309,-0.314857333898544
-4.55903028586819,-6.86206070571081,-7.23594399682103,39.7730538960378,-0.239771232008934,0.167624622583389,-0.316684693098068
-4.61257633426314,-6.75905998882864,-7.30641617890175,39.7518606710754,-0.238958492875099,0.166527971625328,-0.318479061126709
-4.57541377828754,-6.62790795061212,-7.35273948824361,39.7500945689952,-0.23841480910778,0.165508851408958,-0.32027679681778
-4.45673335759125,-6.49808068045838,-7.37445828573832,39.7583363787028,-0.238145992159843,0.164541840553284,-0.322066247463226
-4.28370769374785,-6.40617489610211,-7.3741545263328,39.7648120863302,-0.238152056932449,0.163626939058304,-0.323847413063049
-4.09230055060468,-6.38050751488549,-7.35835903724574,39.7583363787028,-0.238433003425598,0.162764132022858,-0.325620293617249
-3.91467951693634,-6.43631336953065,-7.33132445015443,39.7406753579007,-0.239000454545021,0.161949798464775,-0.327347844839096
-3.78261258414132,-6.56994934786491,-7.2966958779251,39.7118290239241,-0.239822432398796,0.16115415096283,-0.329012602567673
-3.71528042627154,-6.75955677685219,-7.25265076412465,39.685337492721,-0.240855351090431,0.160351023077965,-0.33063417673111
-3.71907660134432,-6.96837334274997,-7.19508835677853,39.679450485787,-0.242099210619926,0.159540429711342,-0.332212597131729
-3.78820694740646,-7.15135693142327,-7.11838910688464,39.7124177246175,-0.243553996086121,0.1587223559618,-0.333747833967209
-3.90409018647017,-7.26975807703542,-7.01723722484635,39.7971906244673,-0.245240077376366,0.157901898026466,-0.335205018520355
-4.03915409958581,-7.29443188220494,-6.88874699631123,39.9331804846431,-0.247156709432602,0.157080516219139,-0.336536943912506
-4.16602626649177,-7.21908569863358,-6.73762669206484,40.1074358898901,-0.249282836914063,0.156254559755325,-0.337731212377548
-4.25973185118294,-7.05829197501205,-6.5729890942728,40.3046506221797,-0.251618444919586,0.155424043536186,-0.338787853717804
-4.30288836779977,-6.8451699129102,-6.41017405291387,40.4983331503089,-0.254163563251495,0.154588967561722,-0.339706838130951
-4.28970165438908,-6.62575520251008,-6.26755901202205,40.6531614326735,-0.256929785013199,0.153764590620995,-0.340520888566971
-4.22316869127146,-6.44492436193881,-6.16139509979268,40.7497083463914,-0.259890228509903,0.153006136417389,-0.341307729482651
-4.11947317217824,-6.34457318118222,-6.10595900828521,40.7750224762077,-0.263006418943405,0.152353569865227,-0.342112421989441
-4.00339013442649,-6.3401020889703,-6.10459209096037,40.7291038221224,-0.266278326511383,0.151806890964508,-0.342934966087341
-3.89829602451699,-6.43366383340506,-6.15471239287123,40.6307908063243,-0.269705951213837,0.151366099715233,-0.343775361776352
-3.82636849682227,-6.60174378137195,-6.24173946255282,40.5036314565495,-0.27328422665596,0.151016667485237,-0.344645947217941
-3.80698802408231,-6.8060892550578,-6.34577705894355,40.3652867936,-0.276973903179169,0.150707736611366,-0.345511138439178
-3.8421525931775,-7.00198933234334,-6.44313194841283,40.2534336618537,-0.280740827322006,0.150402963161469,-0.346322953701019
-3.92307106183406,-7.15334408351746,-6.51178157406044,40.1727816668577,-0.284584999084473,0.150102362036705,-0.347081393003464
-4.03156174944026,-7.23018063115947,-6.53410789036619,40.1345161217865,-0.28850644826889,0.149805933237076,-0.347786486148834
-4.14065183311058,-7.22686871100249,-6.50403570921967,40.1209760058383,-0.292462259531021,0.149508580565453,-0.348444014787674
-4.21657533456611,-7.15152252743112,-6.42536202318989,40.1233308086119,-0.296397984027863,0.1492088586092,-0.349096834659576
-4.23635540468216,-7.03510853391317,-6.31023720849767,40.1162664002911,-0.300301969051361,0.148910403251648,-0.349782019853592
-4.17961257727855,-6.91372666015975,-6.17977254382666,40.0797669573002,-0.304174214601517,0.148613214492798,-0.35049957036972
-4.04614705366724,-6.82314564386626,-6.05690186429367,40.0103002754788,-0.308014720678329,0.148317292332649,-0.351249486207962
-3.84994474201109,-6.79135121035923,-5.96182517036579,39.9125759603741,-0.31184384226799,0.148028448224068,-0.352028846740723
-3.62017625076408,-6.82960388817238,-5.90942667291352,39.7960132230805,-0.315661579370499,0.147747412323952,-0.352869629859924
-3.3930051424616,-6.93525414118014,-5.90395900361416,39.6876922954946,-0.319447576999664,0.147469088435173,-0.353806704282761
-3.20939014815203,-7.08478733626792,-5.94086577138488,39.616459511593,-0.323201864957809,0.147193491458893,-0.354840099811554
-3.1003000644817,-7.24541546388159,-6.00693344208557,39.6029193956447,-0.326924413442612,0.146920621395111,-0.355969786643982
-3.08191858518194,-7.38087299830219,-6.08469584989878,39.6541363559707,-0.330598533153534,0.146671548485756,-0.357144892215729
-3.1486513469876,-7.4570471619128,-6.15896502454852,39.7730538960378,-0.334195852279663,0.146452084183693,-0.358281880617142
-3.27852049421417,-7.45207928167733,-6.21440111605599,39.9373013894969,-0.33770477771759,0.14624696969986,-0.359348028898239
-3.42836951024483,-7.36133266937599,-6.24523269571631,40.1221534072251,-0.341125309467316,0.146056219935417,-0.360343337059021
-3.54525174274875,-7.19259033737771,-6.2548011169902,40.293465309005,-0.344457447528839,0.145879819989204,-0.361267805099487
-3.58780886330146,-6.96953251480491,-6.24842216947427,40.4206246587798,-0.347661226987839,0.145709782838821,-0.362139612436295
-3.51827891986323,-6.7272655553216,-6.24082818433626,40.4859704357474,-0.350701749324799,0.145552650094032,-0.362964540719986
-3.32866996491243,-6.50205498464676,-6.24234698136386,40.4842043336672,-0.353584110736847,0.145422950387001,-0.363730251789093
-3.03316770529997,-6.32635762031882,-6.2601169065868,40.4259229650204,-0.356308341026306,0.145320683717728,-0.364436745643616
-2.67712644321112,-6.22517845952299,-6.29261916297749,40.3340856568498,-0.358874410390854,0.145245864987373,-0.365084022283554
-2.3202859863701,-6.20663170664388,-6.3330191639117,40.2416596479857,-0.361234366893768,0.145171597599983,-0.365700423717499
-2.02718131101413,-6.26773663354022,-6.36354698416649,40.1792573744851,-0.363383144140244,0.145076081156731,-0.366308450698853
-1.86114860125215,-6.39309281148202,-6.36931841287138,40.1751364696313,-0.365363597869873,0.144964411854744,-0.36690229177475
-1.85675303011525,-6.55554249518204,-6.32967781045097,40.2381274438253,-0.367175728082657,0.144836589694023,-0.367481976747513
-2.02678171363804,-6.72610638326666,-6.23718307147002,40.3682302970671,-0.368819534778595,0.144692614674568,-0.368047475814819
-2.34905699744799,-6.87431481029165,-6.09001163949539,40.539542198847,-0.370265960693359,0.14456082880497,-0.368586450815201
-2.77123162527837,-6.98112423535435,-5.89894697342307,40.7279264207356,-0.371465593576431,0.144463747739792,-0.369089424610138
-3.22417525106705,-7.03096863371694,-5.68464471282844,40.8921739141947,-0.37239807844162,0.14439557492733,-0.369559347629547
-3.63635994449539,-7.02782230956781,-5.47520260272214,41.0057931480212,-0.373063445091248,0.144356295466423,-0.369996190071106
-3.93905495687733,-6.98228340740929,-5.29780710989824,41.0411151896253,-0.373461663722992,0.144345909357071,-0.370399951934814
-4.09130155716448,-6.91604500426963,-5.17448079125696,41.0075592501014,-0.373534619808197,0.144336819648743,-0.370757550001144
-4.08171122013852,-6.85742401749104,-5.11995597796606,40.9057140301429,-0.373240917921066,0.144280344247818,-0.371106773614883
-3.92846562641116,-6.83258461631366,-5.13377703091723,40.7661919658067,-0.372597247362137,0.144155398011208,-0.371498465538025
-3.67691907816769,-6.86288868575006,-5.2063755288366,40.6266699014704,-0.371603608131409,0.143961995840073,-0.371932655572891
-3.38880937001274,-6.95876877429471,-5.31421011779634,40.5236472801251,-0.370260000228882,0.143700122833252,-0.37240931391716
-3.12547469917486,-7.11923130590054,-5.43298004535481,40.4877365378276,-0.368519932031631,0.143319651484489,-0.372947335243225
-2.9414601074892,-7.32622631571197,-5.53595448382622,40.5313003891394,-0.366376847028732,0.142778441309929,-0.373547464609146
-2.86853358635428,-7.55243046243391,-5.60490786887934,40.6578710382207,-0.363870710134506,0.142084494233131,-0.374191522598267
-2.91668507017213,-7.76538692852792,-5.63087929805134,40.8491987635763,-0.361001551151276,0.141237795352936,-0.374879509210587
-3.06833227439516,-7.93065174436137,-5.61584320747808,41.0734937277624,-0.357769340276718,0.140238359570503,-0.375611394643784
-3.29030861680858,-8.02123276065485,-5.57270937189418,41.3042643995759,-0.354126125574112,0.13908326625824,-0.376369059085846
-3.54185516505205,-8.02321991274904,-5.51696952098119,41.5067774381061,-0.350071936845779,0.137796506285667,-0.377105951309204
-3.78820694740646,-7.93760677669103,-5.46502666263721,41.657484815617,-0.34565469622612,0.13640496134758,-0.37779375910759
-3.99779577116135,-7.78128414528144,-5.43298004535481,41.7452012189339,-0.340874433517456,0.134908631443977,-0.378432482481003
-4.16602626649177,-7.58422489594095,-5.42128530824227,41.774636253604,-0.335731118917465,0.13330751657486,-0.379022121429443
-4.29529601765422,-7.38302574640423,-5.42599357902784,41.7646283418161,-0.330198615789413,0.13160452246666,-0.379529237747192
-4.40698348426907,-7.21577377847659,-5.43389132357137,41.7428464161603,-0.324279844760895,0.12977422773838,-0.379932761192322
-4.52566390496536,-7.11244186957872,-5.42872741367752,41.7375481099196,-0.318003833293915,0.127788290381432,-0.380245059728622
-4.67451392755582,-7.08892723646415,-5.39379508204268,41.7728701515237,-0.311370611190796,0.125646710395813,-0.380466103553772
-4.86711986282723,-7.1467202432035,-5.31846274947362,41.8747153714823,-0.304380178451538,0.123349487781525,-0.38059589266777
-5.09908613964269,-7.26909569300402,-5.20424921299796,42.0419063684084,-0.29699981212616,0.120911881327629,-0.380640268325806
-5.35482846033502,-7.43386372081392,-5.06148229240338,42.2620804277406,-0.289254993200302,0.118376761674881,-0.380618095397949
-5.6093719888991,-7.60674595300843,-4.91248830399564,42.520520032144,-0.281203806400299,0.115771748125553,-0.380542457103729
-5.82755215623975,-7.7595910682532,-4.78050484229703,42.7866127455616,-0.272846281528473,0.113096840679646,-0.380413353443146
-5.97919936046278,-7.87103718153567,-4.69454093053476,43.0285687305498,-0.264182388782501,0.110352031886578,-0.380230784416199
-6.04713091439668,-7.93429485653405,-4.67160709541797,43.2181303538252,-0.25518599152565,0.107491552829742,-0.379978030920029
-6.02455366264806,-7.95565674154659,-4.72096799881504,43.3341043904253,-0.24587744474411,0.104519762098789,-0.379619479179382
-5.92405492256349,-7.95284160941315,-4.83502965558794,43.368837731336,-0.236303240060806,0.101486794650555,-0.379136234521866
-5.76781234851552,-7.95052326530327,-4.99647777962202,43.3193868730903,-0.226463377475739,0.0983926579356194,-0.378528326749802
-5.58919232140697,-7.97668743454343,-5.17524018977077,43.1922275233155,-0.216357856988907,0.0952373445034027,-0.377795726060867
-5.42196081951676,-8.04723133388717,-5.33775147172417,43.0038433014269,-0.205947443842888,0.0920041501522064,-0.376984924077988
-5.29568804867492,-8.17109714775833,-5.45333192552467,42.7819031400144,-0.19524085521698,0.0886792689561844,-0.376160621643066
-5.22975448162143,-8.34033626778016,-5.49995899427205,42.5352375494791,-0.184286057949066,0.0852656066417694,-0.375340968370438
-5.22835589080514,-8.53822349715989,-5.46882365520621,42.2932815644909,-0.173083052039146,0.0817631632089615,-0.374525964260101
-5.28449932214463,-8.73312999839834,-5.36782365287069,42.0731075051587,-0.161631837487221,0.0781719386577606,-0.373715579509735
-5.38220088059662,-8.89342693399632,-5.2151845515967,41.8976746985249,-0.149922236800194,0.0745428055524826,-0.37289822101593
-5.50267948948527,-8.99526847882354,-5.03900409639487,41.7722814508303,-0.137970238924026,0.0709237158298492,-0.372095674276352
-5.62315809837392,-9.01944549596952,-4.87254394216971,41.7075243745561,-0.125802010297775,0.0673117637634277,-0.371341347694397
-5.73025019516384,-8.96397083334005,-4.74420559333735,41.7057582724759,-0.11341754347086,0.0637069493532181,-0.370635271072388
-5.8165632283975,-8.84292015160233,-4.67692288501458,41.7616848383491,-0.100816838443279,0.0601092725992203,-0.369977414608002
-5.88609317183573,-8.6827888120122,-4.6757078473925,41.8652961603878,-0.08797737210989,0.0565165542066097,-0.369350373744965
-5.9436351939915,-8.51884876424154,-4.73524469087449,42.0001086191768,-0.0749093219637871,0.0529113598167896,-0.368730843067169
-5.99977862533099,-8.38769672602502,-4.83973792637351,42.1502272959943,-0.0616453848779202,0.0492784306406975,-0.368113040924072
-6.06691098451272,-8.31864319075192,-4.96230484650098,42.2938702651843,-0.0481855608522892,0.045617762953043,-0.367496967315674
-6.15062663480185,-8.33321563944265,-5.07606274386836,42.4151426080251,-0.0345298536121845,0.0419293642044067,-0.366882622241974
-6.25072577751034,-8.43174526411289,-5.15519206900642,42.5010929092618,-0.0207204036414623,0.0381892509758472,-0.366254717111588
-6.36501062706972,-8.60297153622891,-5.18344169371982,42.5411245564131,-0.0068255150690674,0.0344192273914814,-0.365614742040634
-6.4772974897487,-8.81741836639356,-5.15443267049262,42.5476002640405,0.0071286531165242,0.0306650698184967,-0.364979386329651
-6.57579824295285,-9.03832344086432,-5.07348078892144,42.5305279439319,0.0211420990526676,0.0269267782568932,-0.364348649978638
-6.64412939426283,-9.22644050578096,-4.95395146284917,42.5005042085684,0.0352148227393627,0.0232043545693159,-0.363722532987595
-6.67210121058856,-9.34699439949514,-4.81756348977052,42.4798996842993,0.0493395552039146,0.0195086989551783,-0.363139539957047
-6.6513221470323,-9.37762966094723,-4.68603566718019,42.4863753919267,0.0634697899222374,0.0158674232661724,-0.362591683864594
-6.58438958653861,-9.314206389941,-4.57622664208458,42.5281731411582,0.0775662958621979,0.012297241948545,-0.362032443284988
-6.47789688581282,-9.16748832698666,-4.5013499486238,42.6094138368477,0.0916290655732155,0.0087981550022959,-0.361461818218231
-6.34183397925698,-8.96463321737145,-4.46201310560891,42.7259765741412,0.10565809905529,0.0053701633587479,-0.360879838466644
-6.19138556716219,-8.74323135487714,-4.45305220314606,42.8584342301567,0.11962578445673,0.0020190805662423,-0.360251605510712
-6.04173634981957,-8.55014640972503,-4.46034242887855,42.9973675937995,0.133494332432747,-0.0013001423794776,-0.359553843736649
-5.90667243670394,-8.4209815236027,-4.47127776747728,43.1286478484281,0.147253587841988,-0.0046383682638406,-0.358798205852509
-5.79418577533692,-8.38703434199362,-4.47188528628832,43.2357913746272,0.16090352833271,-0.0079955961555242,-0.357984691858292
-5.70627435259893,-8.46039337347079,-4.4529003234433,43.3229190772507,0.174444168806076,-0.0113718248903751,-0.357113271951675
-5.64253857111389,-8.63443477772025,-4.41720859329466,43.3864987521381,0.187797024846077,-0.0147416219115257,-0.356149077415466
-5.5961852754884,-8.88829345775299,-4.37255596068316,43.4394818145442,0.200861096382141,-0.0180773753672838,-0.355074673891068
-5.55982191426496,-9.18305435172448,-4.33367475677655,43.4818682644692,0.213613852858543,-0.0213769041001797,-0.353907495737076
-5.52545653992193,-9.47433772953113,-4.31833490679777,43.5307304220215,0.226055294275284,-0.0246402062475681,-0.352647542953491
-5.48909317869849,-9.7238909133598,-4.34233189983388,43.5766490761068,0.238185420632362,-0.0278672836720943,-0.351294815540314
-5.44773485027403,-9.89577956950721,-4.41523415715877,43.6219790294988,0.249944657087326,-0.0310530457645655,-0.349893659353256
-5.40817471004194,-9.96847621695299,-4.53415596442,43.6584784724897,0.261315554380417,-0.034168429672718,-0.348503619432449
-5.37760551077168,-9.94098727965003,-4.68466874985535,43.6737846905181,0.272340267896652,-0.0371894538402557,-0.347139954566956
-5.37021295931417,-9.82589805419487,-4.84292740013147,43.6578897717963,0.28301876783371,-0.0401161201298237,-0.345802694559097
-5.39938356776814,-9.65003509385908,-4.97734093707424,43.614914621178,0.293351083993912,-0.0429484248161316,-0.344491809606552
-5.47730505610408,-9.44535842815753,-5.05601462310402,43.5542784497576,0.303242027759552,-0.0456158891320229,-0.343186229467392
-5.61216917053168,-9.24432487462866,-5.05282514934605,43.4924648769504,0.312603652477264,-0.0480589233338833,-0.341826379299164
-5.80177812548247,-9.07309860251264,-4.95501462076849,43.4500784270255,0.321443259716034,-0.0502884313464165,-0.340373754501343
-6.03813997343484,-8.94840480860224,-4.76440559380445,43.4536106311859,0.329760819673538,-0.0523044094443321,-0.338828325271606
-6.29787826788798,-8.87603935317216,-4.50241310654312,43.5136581019129,0.337556332349777,-0.0541068539023399,-0.337190091609955
-6.55861555578133,-8.85004077993984,-4.20275445299727,43.6396400503008,0.34473317861557,-0.0557073950767517,-0.335464894771576
-6.78798444965227,-8.85914856037154,-3.90901910785906,43.8150728569346,0.351222306489944,-0.0571234673261642,-0.333693414926529
-6.9592119253033,-8.88978382182364,-3.66175895176547,44.0175858954648,0.357051342725754,-0.0583608858287334,-0.331910520792007
-7.05051992573799,-8.92820209564464,-3.49696947427066,44.2153893284478,0.362220257520676,-0.059419646859169,-0.330116212368011
-7.05471569818685,-8.96711715748919,-3.4342431570307,44.3766933184399,0.366729080677032,-0.0602997504174709,-0.328310459852219
-6.97159944396184,-9.00901294747502,-3.47175744361247,44.472062830771,0.370550900697708,-0.0609779469668865,-0.326531797647476
-6.82314901874746,-9.05554542568063,-3.59052737117094,44.4844255453324,0.373737335205078,-0.0614564120769501,-0.324853628873825
-6.63933422574985,-9.11515998850633,-3.75577248777403,44.4320311836197,0.376366853713989,-0.0617605745792389,-0.323310822248459
-6.45651842619244,-9.19249332417188,-3.92329579991852,44.3295972629677,0.378439426422119,-0.0618904381990433,-0.321903347969055
-6.31366236424321,-9.28423351252031,-4.05102662993984,44.2236311381554,0.37995508313179,-0.0618459992110729,-0.320631235837936
-6.23973684966809,-9.38739982541033,-4.10524768382523,44.1500435514802,0.380858600139618,-0.0616417899727821,-0.319463223218918
-6.24952698538209,-9.48510147004133,-4.06849279575726,44.1488661500934,0.381154298782349,-0.0612974278628826,-0.318323761224747
-6.34463116088955,-9.5577981174871,-3.94288828157458,44.2389373561839,0.38090181350708,-0.0608180016279221,-0.31716850399971
-6.50526930607442,-9.59008933901769,-3.74696346501394,44.4137814621242,0.38010111451149,-0.0602035075426102,-0.315997451543808
-6.69927383216212,-9.56938983803654,-3.51428376038533,44.6416086304707,0.378752201795578,-0.0594539456069469,-0.31481060385704
-6.88268902778365,-9.49503723051227,-3.28388225129812,44.8800324112984,0.376814395189285,-0.0586027391254902,-0.31357815861702
-7.01395676582651,-9.37713287292368,-3.09053938968439,45.071360136654,0.374342173337936,-0.0577537938952446,-0.312291413545609
-7.06011026276395,-9.24018497443243,-2.95977096560787,45.1684957510653,0.371430724859238,-0.0569775886833668,-0.310971438884735
-7.00256824060818,-9.11449760447493,-2.90479051320868,45.1367059136216,0.368080049753189,-0.0562741234898567,-0.309618204832077
-6.84153049804722,-9.03434913667594,-2.91785216764606,44.9718697194691,0.364290148019791,-0.0556434020400047,-0.308231741189957
-6.60297086452641,-9.02507576023639,-2.97997096607498,44.6993012984241,0.359974563121796,-0.0550628937780857,-0.306785881519318
-6.32265330520505,-9.10389945997259,-3.06396044170136,44.3713950121993,0.355143457651138,-0.0544984489679337,-0.305248647928238
-6.05072729078141,-9.27048904386883,-3.13716645843177,44.0540853384557,0.349893480539322,-0.0539384372532368,-0.303614228963852
-5.83554410376138,-9.50563537501462,-3.1740732262025,43.8250807687224,0.344224631786346,-0.0533828623592854,-0.301882594823837
-5.71166891717604,-9.77472888776949,-3.15751833860164,43.7385417667923,0.33813688158989,-0.0528317205607891,-0.300053775310516
-5.70187878146203,-10.0370329642025,-3.08340104365467,43.824492068029,0.331587374210358,-0.052261758595705,-0.298157572746277
-5.8033765149868,-10.2503206223122,-2.95810028887751,44.0864638765928,0.324560135602951,-0.0516729801893234,-0.296185225248337
-5.99478365812996,-10.3776639523482,-2.79999351830415,44.489723851573,0.317082047462463,-0.0510886311531067,-0.294098258018494
-6.23334329165078,-10.3988602413529,-2.62806569477962,44.9701036173889,0.309153109788895,-0.0505087114870548,-0.291896641254425
-6.47190292517159,-10.3117567412243,-2.4682882474759,45.4528381859784,0.300773322582245,-0.0499332249164581,-0.289580404758453
-6.66530805519517,-10.1335754367786,-2.33888674072421,45.859630365119,0.29190269112587,-0.0493737906217575,-0.287125527858734
-6.77479773624157,-9.89511718547582,-2.25216343044814,46.1316100854706,0.282556504011154,-0.0488275028765202,-0.284539312124252
-6.78438807326753,-9.64009933338813,-2.21464914386638,46.2316892033489,0.272789984941483,-0.0482798293232918,-0.28185299038887
-6.69567745577738,-9.40727134635223,-2.22330628692371,46.1616338208341,0.262603133916855,-0.0477307699620724,-0.279066532850266
-6.53424011584035,-9.23107719400073,-2.27251531061801,45.9432258635821,0.251995921134949,-0.0471803247928619,-0.276179969310761
-6.33683901205596,-9.1302292252206,-2.35240403426987,45.6300370946923,0.240960374474525,-0.0465965196490288,-0.27318674325943
-6.14523207022475,-9.10820495617666,-2.45021456284743,45.2774053793446,0.229529201984406,-0.0459139570593834,-0.270110130310059
-6.00077761877119,-9.15059753418605,-2.55364464042712,44.9500877938132,0.217743068933487,-0.045099213719368,-0.266979902982712
-5.93124767533296,-9.23124279000858,-2.65206268781573,44.6916481894099,0.205601990222931,-0.0441522859036922,-0.26379606127739
-5.94683197300015,-9.31900867416863,-2.73271080998139,44.529166798031,0.193105965852737,-0.0430731773376465,-0.260558575391769
-6.04213594719565,-9.37994800505712,-2.78723562327229,44.466175823837,0.180250629782677,-0.0418437197804451,-0.25730162858963
-6.19737952780342,-9.39038055355161,-2.80561306730628,44.489723851573,0.167118087410927,-0.0404682718217373,-0.254085510969162
-6.38239311292928,-9.33656185100064,-2.78070479605361,44.5697871458757,0.153794810175896,-0.0389693565666676,-0.250936388969421
-6.56440971773452,-9.22031345349054,-2.7112957718922,44.681640277622,0.140280798077583,-0.0373469740152359,-0.24785427749157
-6.7138591363891,-9.05438625362569,-2.5987529121469,44.795848212142,0.12657605111599,-0.0356011241674423,-0.244839146733284
-6.81755465548232,-8.86030773242649,-2.45279651779436,44.8982821327939,0.112690001726151,-0.0337812155485153,-0.241903364658356
-6.86750432749254,-8.66689159525868,-2.28648824327195,44.9889420395778,0.098674975335598,-0.0319599099457264,-0.239029482007027
-6.86970211306099,-8.49831485926825,-2.11866117172194,45.068416633187,0.0845738425850868,-0.0301604568958282,-0.23618771135807
-6.83593613478208,-8.37709858152267,-1.96860402539487,45.1561330365039,0.070386603474617,-0.0283828563988209,-0.233378052711487
-6.78219028769908,-8.31019779435162,-1.85196041367504,45.2709296717172,0.0561132542788982,-0.0266271065920591,-0.230600491166115
-6.71905390227816,-8.29926845783357,-1.78133635189156,45.4157500422941,0.0418133810162544,-0.0248859412968159,-0.227879017591476
-6.6503231535921,-8.32973812327782,-1.75992131380237,45.5970698558618,0.0275865271687508,-0.0231404677033424,-0.225261583924294
-6.57579824295285,-8.38455040187588,-1.78164011129708,45.8095908061799,0.0134726567193866,-0.0213790591806173,-0.222772166132927
-6.48768702152682,-8.4401906605132,-1.83403860874934,46.0350631717528,-0.0005282321944832,-0.0196017157286406,-0.220410764217377
-6.38219331424124,-8.47115711398099,-1.89646116658378,46.2505276255378,-0.0144161395728588,-0.017808435484767,-0.218177378177643
-6.25452195258311,-8.46022777746295,-1.95204913779401,46.429492636332,-0.0281213112175465,-0.0159970372915268,-0.216101795434952
-6.10667092343286,-8.39299579827619,-1.98257695804881,46.5554745847199,-0.0415659993886948,-0.0141973132267594,-0.214220345020294
-5.95442432314571,-8.26896438839718,-1.978020566966,46.6108124498997,-0.0547422096133232,-0.0124412328004837,-0.212539553642273
-5.81236745594864,-8.09575096418697,-1.93670928781523,46.5955062318713,-0.0676499456167221,-0.010728795081377,-0.211059436202049
-5.70487576178265,-7.89090870247757,-1.86562958692346,46.5107333320214,-0.080289214849472,-0.0090599991381168,-0.209779992699623
-5.64633474618667,-7.67795223638357,-1.77495740437563,46.3794530773928,-0.0925917029380798,-0.0074748084880411,-0.208696126937866
-5.64853253175512,-7.48536407925501,-1.68033634955603,46.2181490874007,-0.104484751820564,-0.0060313520953059,-0.207768589258194
-5.70887173554346,-7.33682446021432,-1.59406867838824,46.0556676960218,-0.115964010357857,-0.0047477949410677,-0.206963241100311
-5.8087710795639,-7.24856178803072,-1.52602657155168,45.9185004344592,-0.127029463648796,-0.0036241356283426,-0.206280082464218
-5.92485411731566,-7.22935265112022,-1.47605814934357,45.8284292283687,-0.137681126594543,-0.0026603736914694,-0.205719113349915
-6.0247534613361,-7.27323559320025,-1.44492281027773,45.799582894392,-0.147836163640022,-0.0018710404401645,-0.205325365066528
-6.08109669136363,-7.36050468933675,-1.42396341129683,45.8402032422368,-0.157421186566353,-0.0012212573783472,-0.20513154566288
-6.07390393859415,-7.46317421420322,-1.40513032815456,45.9491128705161,-0.166445642709732,-0.0006616135942749,-0.20512530207634
-5.99778063845058,-7.54696579417489,-1.38447468857918,46.1157151667488,-0.17490953207016,-0.0001921082730405,-0.205306634306908
-5.86711229647184,-7.58008499574472,-1.36138897375963,46.3188169059724,-0.182812854647636,0.0001872593711595,-0.205675542354584
-5.70487576178265,-7.53818920575889,-1.33967017626492,46.5301604549037,-0.19009456038475,0.0004561449750326,-0.206211671233177
-5.5492325837988,-7.40902431963655,-1.32812731885515,46.716778574712,-0.196753218770027,0.0005869378219358,-0.206870704889297
-5.42915357228623,-7.20351967389576,-1.337088221318,46.8480588293406,-0.20284840464592,0.0005723724607378,-0.207628652453423
-5.37161155013045,-6.94717705374527,-1.37323559057492,46.89986449036,-0.208380118012428,0.0004124495608266,-0.208485528826714
-5.38459846485311,-6.6790771170375,-1.43824010335629,46.8504136321142,-0.213348358869553,0.0001071698789019,-0.209441319108009
-5.46132116106081,-6.44989224217428,-1.52739348887652,46.7008836559902,-0.217663750052452,-0.0003303864505141,-0.210520729422569
-5.57820339356473,-6.30499573530628,-1.627785972401,46.4689355827899,-0.221306681632996,-0.0008893192280083,-0.211718663573265
-5.70307757359028,-6.27932835408966,-1.72407770395096,46.1816496444098,-0.224346905946732,-0.0015718076610937,-0.21300533413887
-5.80077913204227,-6.3886217192701,-1.79849875830346,45.8808235900815,-0.226784437894821,-0.002377850934863,-0.214380756020546
-5.84533423947539,-6.6217808983217,-1.83783560131835,45.6182630808243,-0.228619262576103,-0.003307448234409,-0.215844914317131
-5.82615356542346,-6.94850182180807,-1.83373484934382,45.4334110630961,-0.229810684919357,-0.0043569654226303,-0.217392712831497
-5.75262764822442,-7.31480019117038,-1.7887784573268,45.3662991840483,-0.230386331677437,-0.0054828049615025,-0.219024166464806
-5.64353756455409,-7.66023346354371,-1.71329424505499,45.4287014575489,-0.230414494872093,-0.0066450014710426,-0.220744341611862
-5.5360458703881,-7.9250214800945,-1.62444461894028,45.6182630808243,-0.229895189404488,-0.0078435549512505,-0.222553253173828
-5.46851391383028,-8.06544689475058,-1.53848070717801,45.9096699240582,-0.228828400373459,-0.0090784635394811,-0.224450886249542
-5.47111129677481,-8.0598166304837,-1.47119799885525,46.2593581359388,-0.227202504873276,-0.0103402808308601,-0.226412549614906
-5.56181990114537,-7.91508571962355,-1.42821604297411,46.6172881575271,-0.225088715553284,-0.0116050271317363,-0.228368476033211
-5.74363670726258,-7.66420776773209,-1.40786416280425,46.9328317291905,-0.222569867968559,-0.0128581700846553,-0.230273619294167
-5.99698144369841,-7.35884872925826,-1.39981453855796,47.1624249996172,-0.219645962119102,-0.0140997087582946,-0.232127964496613
-6.29408209281521,-7.05762959098066,-1.38644912471506,47.2831086417646,-0.216317012906075,-0.015329641290009,-0.23393152654171
-6.59717670257322,-6.82314564386626,-1.35090927426918,47.2948826556326,-0.212532132863998,-0.0165675859898329,-0.235632702708244
-6.87229949600552,-6.69232479766543,-1.28043709218845,47.2159967627168,-0.208301514387131,-0.017812816426158,-0.237200245261192
-7.09627382529935,-6.68619774537502,-1.17047618739007,47.0782408004607,-0.203686192631721,-0.0190449859946966,-0.238654509186745
-7.25531358097989,-6.79582230257115,-1.02679798857893,46.9257673208697,-0.198686152696609,-0.0202640928328037,-0.239995494484901
-7.35301513943188,-6.99172237985669,-0.866413022464169,46.7944870662411,-0.193301409482956,-0.0214701369404793,-0.241223186254501
-7.40376400619427,-7.23051182317517,-0.710584447432214,46.7185446767922,-0.187527596950531,-0.0226231534034014,-0.242354303598404
-7.4293382382635,-7.46400219424247,-0.585891211466098,46.7085367650044,-0.181449741125107,-0.023696256801486,-0.243380844593048
-7.4557116650849,-7.65029770307276,-0.50797692395012,46.7568102218634,-0.175157204270363,-0.0247025266289711,-0.244278118014336
-7.50046657120605,-7.76720848461426,-0.487776923483015,46.8480588293406,-0.168649986386299,-0.0256419591605663,-0.245046108961105
-7.5739924884051,-7.80860748657655,-0.519367901657135,46.9510814506859,-0.161928102374077,-0.0265145562589169,-0.245684817433357
-7.68088478650697,-7.78972954168174,-0.588625046115781,47.0399752553896,-0.154986456036568,-0.0273261293768883,-0.246178984642029
-7.81275192061395,-7.7403819313427,-0.671247604417325,47.0959018212628,-0.147860661149025,-0.0280861221253872,-0.246518447995186
-7.96200154058049,-7.69484302918418,-0.742934824120134,47.1023775288902,-0.140591397881508,-0.0287981685250998,-0.246708273887634
-8.11464773824373,-7.68391369266614,-0.777715276052218,47.0752972969937,-0.133178666234016,-0.029462268576026,-0.246748462319374
-8.25930198838532,-7.72448471458918,-0.76313482458724,47.0329108470688,-0.125622481107712,-0.0300784185528755,-0.246639028191566
-8.39116912249231,-7.82152397518878,-0.697219033589317,47.0022984110119,-0.117934457957745,-0.0306691452860832,-0.24634362757206
-8.50585356942777,-7.95582233755444,-0.588625046115781,47.0158385269601,-0.110137850046158,-0.0312664173543453,-0.245850637555122
-8.60195673837544,-8.10154682446169,-0.456945343822696,47.0853052087816,-0.102244287729263,-0.0318796820938587,-0.245184749364853
-8.67967842802334,-8.22889015449768,-0.326025040043412,47.2212950689574,-0.0942537635564804,-0.0325089395046234,-0.244345977902412
-8.73602165805087,-8.31019779435162,-0.215608496136754,47.4114453929262,-0.0861662849783897,-0.0331541858613491,-0.24333430826664
-8.76898844157762,-8.32940693126212,-0.141339321487021,47.6274985474046,-0.0780399888753891,-0.0338132418692112,-0.242113411426544
-8.7737836100906,-8.28916710135477,-0.107773907177019,47.8306002866282,-0.0699838548898697,-0.0344643071293831,-0.240698546171188
-8.74521239770075,-8.2057067133988,-0.109596463610141,47.9930816780071,-0.0620487593114376,-0.0350877642631531,-0.239141300320625
-8.68787017423302,-8.1093298368306,-0.136023531890414,48.0731449723098,-0.0542346984148026,-0.0356836132705212,-0.237441673874855
-8.60435432263193,-8.03315567321999,-0.17247466055286,48.0643144619087,-0.0465416721999645,-0.0362518504261971,-0.235599666833878
-8.50605336811581,-8.00964104010541,-0.205888195160102,47.9660014461106,-0.0389929339289665,-0.0367655903100967,-0.233640715479851
-8.40855160835186,-8.05352398218544,-0.232163383737615,47.7952782450241,-0.0316160917282104,-0.0372379124164581,-0.231573522090912
-8.33462609377674,-8.16712284356995,-0.251755865393679,47.5939426078807,-0.0244155116379261,-0.0377087779343128,-0.229381382465363
-8.30225870631411,-8.33553398355254,-0.271955865860785,47.3961391748977,-0.0173911917954683,-0.0381781905889511,-0.227064296603203
-8.32383696462253,-8.52398224048487,-0.306584438090108,47.2371899876792,-0.0105431340634823,-0.0386461466550827,-0.224622264504433
-8.40635382278341,-8.69471172457734,-0.365513762761062,47.151828387136,-0.0039352802559733,-0.0391155518591404,-0.222058191895485
-8.54321592409142,-8.80996654604035,-0.453148351253692,47.1406430739613,0.0023633395321667,-0.0395834967494011,-0.219390228390694
-8.72243534726409,-8.8391114434218,-0.563109256052069,47.1953922384477,0.008347637951374,-0.0400441698729992,-0.216633647680283
-8.92143484055281,-8.7710514841958,-0.682790461827099,47.295471356326,0.0140176136046648,-0.0404975712299347,-0.213788434863091
-9.11563916532855,-8.60992656855858,-0.78743557702887,47.4067357873789,0.0193732660263777,-0.0409437008202076,-0.210854604840279
-9.28047308296227,-8.3825632497817,-0.853503247729553,47.5009278983232,0.024361552670598,-0.0413404107093811,-0.207844495773315
-9.39535732858578,-8.12754539769401,-0.858059638812359,47.5480239537954,0.0289410538971424,-0.0416230335831642,-0.204806789755821
-9.45789431794258,-7.88825916635199,-0.789258133461992,47.5386047427009,0.0331233963370323,-0.0417690426111221,-0.201777830719948
-9.4638882785838,-7.70643474973362,-0.648617528706056,47.4797346733608,0.0369085781276226,-0.0417784377932549,-0.198757603764534
-9.42552693047995,-7.61386658134595,-0.450262636901248,47.3873086644967,0.0402965992689133,-0.0416512154042721,-0.19574610888958
-9.36159135030687,-7.62512710987969,-0.221683684247162,47.298414859793,0.0431973561644554,-0.0413786582648754,-0.192720085382462
-9.2908626147404,-7.73624203114647,0.0012757194047975,47.2401334911462,0.0455788820981979,-0.0409542247653008,-0.189692631363869
-9.23451938471287,-7.92816780424363,0.187783994394311,47.2360125862924,0.0474992990493774,-0.0403800942003727,-0.186700060963631
-9.20554857494694,-8.16530128748361,0.308983997196943,47.3096001729676,0.0489586107432842,-0.0396562665700912,-0.183742374181747
-9.21593810672507,-8.41137695514745,0.353940389213959,47.4479448359171,0.0499568171799183,-0.0387827418744564,-0.180819571018219
-9.26608757742333,-8.62532699728855,0.320526854606717,47.6469256702869,0.0504626706242561,-0.0377369932830334,-0.177941098809242
-9.34880423427225,-8.77684734447052,0.22651331859816,47.8606240219917,0.0504681766033173,-0.036523375660181,-0.175090968608856
-9.45050176648506,-8.84623207175931,0.0949854960078349,48.0619596591351,0.0499965883791447,-0.0351687781512737,-0.172243744134903
-9.55319829213808,-8.82818210690375,-0.0461107478563818,48.2179653428866,0.0490479059517384,-0.0336731970310211,-0.169399425387383
-9.64250830569235,-8.73147403831985,-0.169740825903177,48.2968512358025,0.047622125595808,-0.0320366360247135,-0.166558012366295
-9.69725314621555,-8.57614498295735,-0.258286692612368,48.2944964330288,0.0456611216068268,-0.0302227586507797,-0.16379289329052
-9.70624408717739,-8.38769672602502,-0.303091204926624,48.2103122338724,0.0431707017123699,-0.0281923282891512,-0.161174550652504
-9.66368696662468,-8.19494297288861,-0.306280678684588,48.0731449723098,0.0402148105204105,-0.02594243735075,-0.158700078725815
-9.56778359636506,-8.02305431674119,-0.27636037724083,47.9065426760771,0.0367934443056583,-0.0234730858355761,-0.156369462609291
-9.43172068980922,-7.88660320627349,-0.226543834735488,47.742295182618,0.0329066067934036,-0.0207842737436295,-0.154182717204094
-9.26608757742333,-7.79784374606635,-0.169133307092136,47.6145471321498,0.0284852664917707,-0.0179312229156494,-0.152132570743561
-9.09625869258858,-7.75412639999418,-0.109444583907381,47.5403708447811,0.0235134363174438,-0.0150112984701991,-0.150199398398399
-8.94301309886122,-7.74816494371161,-0.0530972141833506,47.5185889191253,0.0180441588163376,-0.012066644616425,-0.14837084710598
-8.83052643749421,-7.76720848461426,0.0058321104876032,47.5521448586492,0.012077433988452,-0.0090972604230046,-0.146646916866302
-8.77498240221884,-7.79883732211345,0.0688621871330822,47.6180793363102,0.0056132613681256,-0.0061031449586153,-0.145027592778206
-8.78976750513387,-7.83444046380101,0.13903060980829,47.694021725759,-0.001369432080537,-0.0030486932955682,-0.143479466438293
-8.86988677903826,-7.86755966537084,0.214362942377344,47.75995620342,-0.0088016185909509,9.29802190512419e-05,-0.14199236035347
-9.00794767247451,-7.90101005895637,0.288024598216037,47.7958669457175,-0.01659319922328,0.0033131572417914,-0.140589520335197
-9.18277152451028,-7.94075310084017,0.34649828377871,47.7999878505713,-0.0247441716492176,0.0066118384711444,-0.139270946383476
-9.36938349914047,-7.99291584331265,0.376418585222467,47.7711415165946,-0.0332545377314091,0.0099890250712633,-0.138036638498306
-9.54141016954367,-8.06594368277412,0.366242645137535,47.7311098694433,-0.0421635359525681,0.0134381772950292,-0.136897504329681
-9.67187871283436,-8.16000221523244,0.312477230360427,47.7004974333864,-0.051479160785675,0.0169302318245173,-0.135854974389076
-9.74760241560186,-8.26912998440503,0.21922309286567,47.6993200319996,-0.0611701644957066,0.0204426646232605,-0.134899616241455
-9.75959033688431,-8.37941692563256,0.102275721740324,47.754069196486,-0.0712365508079529,0.0239754766225815,-0.134031429886818
-9.71063965831429,-8.47115711398099,-0.0143678899795021,47.8759302400202,-0.0816783159971237,0.0275286659598351,-0.133250400424004
-9.61353749592642,-8.52166389637498,-0.104432553716295,48.0619596591351,-0.0924707651138306,0.0310789849609137,-0.132518753409386
-9.4848671408281,-8.51321849997467,-0.144073156136704,48.3086252496705,-0.103531055152416,0.0345668494701386,-0.131725311279297
-9.34161148150278,-8.43770672039546,-0.117797967559192,48.5894354804231,-0.114801064133644,0.037955928593874,-0.130796685814857
-9.19855562086551,-8.29711570973153,-0.0228731533340727,48.8737779153362,-0.126280784606934,0.0412462241947651,-0.129732877016068
-9.06588929200637,-8.11346973702683,0.13113286526476,49.1339836218198,-0.137970224022865,0.0444377362728119,-0.128533884882927
-8.94541068311771,-7.92088157989827,0.318704298173595,49.3441497693643,-0.149872288107872,0.0475086681544781,-0.127160459756851
-8.83652039813543,-7.75975666426105,0.509617084543154,49.4648334115116,-0.161920845508575,0.0504924431443214,-0.125580638647079
-8.7298278987216,-7.67348114417164,0.671065208577236,49.5001554531157,-0.174046888947487,0.0534442886710167,-0.123801678419113
-8.6213372111154,-7.69368385712924,0.777077241103849,49.4365757782283,-0.186250403523445,0.0563642010092735,-0.121823586523533
-8.50964974450055,-7.83162533166758,0.814895287091136,49.2952876118119,-0.19853138923645,0.0592521838843822,-0.119646355509758
-8.39736288182157,-8.07803219134711,0.781785511889415,49.1021937843761,-0.210897117853165,0.0620886199176311,-0.117317214608192
-8.29646454436093,-8.39697010246457,0.693087765477464,48.8884954326713,-0.223333790898323,0.0648182854056358,-0.114916823804379
-8.21874285471302,-8.73114284630415,0.572495281485873,48.6895145983015,-0.235820323228836,0.0674055740237236,-0.112478598952293
-8.17838351972877,-9.01580238379684,0.446890767303196,48.545282928418,-0.248356729745865,0.0698504894971848,-0.110002540051937
-8.18038150660918,-9.18553829184222,0.345283246156628,48.47640494729,-0.260942995548248,0.0721530318260193,-0.10748864710331
-8.23053097730744,-9.19497726428962,0.285746402674634,48.4958320701723,-0.273523181676865,0.0743081197142601,-0.104985602200031
-8.31724360791718,-9.0230886081422,0.277393019022823,48.6070965012252,-0.286002099514008,0.076317198574543,-0.102531187236309
-8.42393610733101,-8.68924705631832,0.315666704118391,48.7831180085523,-0.298340499401093,0.0781868174672127,-0.10011450201273
-8.5250342434797,-8.24164104710207,0.389024600551563,49.0032920678846,-0.310538411140442,0.0799169689416885,-0.0977355465292931
-8.59036841446907,-7.75710712813546,0.480759941018718,49.2234661272169,-0.322595804929733,0.0815076604485512,-0.0953943207859993
-8.59816056330266,-7.32572952768843,0.573558439405194,49.405374641478,-0.334456741809845,0.0828825980424881,-0.0931017175316811
-8.53462458050566,-7.03146542174049,0.654358441273615,49.5231147801584,-0.346089988946915,0.0839887335896492,-0.0909064263105392
-8.40095925820631,-6.93558533319583,0.719059194649456,49.5501950120549,-0.357520252466202,0.0848493203520775,-0.0888462215662003
-8.2083533229349,-7.06773094745945,0.767660699532717,49.4877927385543,-0.368747502565384,0.0854643583297729,-0.0869211032986641
-7.9869763765856,-7.41465458390342,0.80957949749453,49.3529802797653,-0.379771769046783,0.0858338549733162,-0.0851310789585114
-7.77399097513402,-7.92021919586687,0.854384009808786,49.1793135752117,-0.390574872493744,0.0860137566924095,-0.0835182815790176
-7.60596027849164,-8.50262035547233,0.908908823099694,49.0062355713516,-0.40113577246666,0.0860818102955818,-0.0821640938520432
-7.51904784919386,-9.06514999413588,0.97725468934178,48.8843745278175,-0.411451518535614,0.0860598161816597,-0.0811077505350113
-7.53623053636537,-9.51507434746202,1.06002912734608,48.8502298876001,-0.42152214050293,0.0859477743506432,-0.0803492516279221
-7.66230350851917,-9.78400226420904,1.14447424208075,48.9285270798226,-0.431347638368607,0.0857456922531128,-0.0798885971307755
-7.886277837813,-9.83434345059518,1.22193289048845,49.1263305128056,-0.440860420465469,0.0854215919971466,-0.0796705633401871
-8.1853764738102,-9.6747088990286,1.28192537307872,49.4259791657471,-0.449985653162003,0.0849631279706955,-0.0795926973223686
-8.52183746447104,-9.34765678352653,1.31533890768596,49.792150997043,-0.458716094493866,0.0843899101018906,-0.0796077623963356
-8.85410268268303,-8.92373100343271,1.32004717847153,50.1783386519146,-0.467051714658737,0.0837019458413124,-0.079715758562088
-9.14700755935096,-8.48556396666386,1.30440356908723,50.5297929658755,-0.474992513656616,0.082899235188961,-0.0799166858196259
-9.36918370045242,-8.11247616097973,1.27828026021248,50.8035387883073,-0.482466578483582,0.081987589597702,-0.0802977308630943
-9.50404781488002,-7.86275738114322,1.25337198895981,50.9636653769126,-0.489457905292511,0.0809779167175293,-0.0808974131941795
-9.5504011105055,-7.76422775647297,1.24425920679419,51.0013422212903,-0.496022462844849,0.0798752978444099,-0.0816670432686806
-9.51603573616247,-7.82003361111814,1.25762462063709,50.9259885325349,-0.502160251140594,0.078679732978344,-0.0826066136360168
-9.4179345803344,-7.99804931955597,1.29680958394922,50.7540879300616,-0.507871210575104,0.0773912221193314,-0.083716131746769
-9.27787570001774,-8.25240478761226,1.35027123932081,50.5292042651821,-0.513113975524902,0.0759952366352081,-0.0849360078573227
-9.11304178238401,-8.52977810075959,1.40920056399176,50.2931352871279,-0.517903089523315,0.0745535343885422,-0.0861957594752312
-8.93981631985257,-8.78446476083158,1.4567389109557,50.0806143368099,-0.522294521331787,0.0731424167752266,-0.0874844938516617
-8.76798944813741,-8.9850015263369,1.47815394904489,49.9257860544452,-0.526288211345673,0.0717618837952614,-0.0888022035360336
-8.5983603619907,-9.11764392862407,1.46615545252683,49.8380696511284,-0.529884219169617,0.0704119354486465,-0.0901488810777664
-8.43052946403636,-9.19050617207769,1.41952838377945,49.8215860317131,-0.532969892024994,0.0691071078181267,-0.0915463343262672
-8.26569554640263,-9.22213500957688,1.34738552496836,49.866915985105,-0.535450756549835,0.0678059756755829,-0.0929742082953453
-8.10545699859384,-9.23554828621266,1.26491484636958,49.9511001842615,-0.537344992160797,0.0664526000618935,-0.0943903625011444
-7.9552083851871,-9.25061752292693,1.19322762666677,50.061775914621,-0.53865259885788,0.0650469735264778,-0.0957947969436646
-7.8281364195931,-9.28208076441827,1.15222010692152,50.1706855429004,-0.539373576641083,0.0635891035199165,-0.0971875041723251
-7.73622902309429,-9.32447334242765,1.15449830246292,50.2760629670193,-0.539486825466156,0.0620426535606384,-0.0986200794577599
-7.69087472090901,-9.36587234438994,1.20659304050967,50.3626019689494,-0.539038896560669,0.0604032687842846,-0.100199326872826
-7.69986566187085,-9.38889018948097,1.30197349384307,50.4391330590916,-0.538097321987152,0.0587029196321964,-0.101980477571487
-7.7636014433559,-9.37050903260971,1.42575545159262,50.5033014346724,-0.53666216135025,0.0569416098296642,-0.103963524103165
-7.87149273489797,-9.2956596370619,1.55500507864154,50.5680585109466,-0.534733355045319,0.0551193356513977,-0.106148466467857
-8.00335986900495,-9.15937412260205,1.66602914135924,50.6281059816736,-0.532256424427032,0.0532600805163383,-0.108530215919018
-8.13522700311194,-8.97158824970112,1.73741260165653,50.6863873503203,-0.529248833656311,0.0513820052146912,-0.111016489565372
-8.24311829465401,-8.75035198321465,1.75609380509604,50.7358382085661,-0.525782465934753,0.0494793020188808,-0.113520093262196
-8.30545548532277,-8.52331985645347,1.71903515762255,50.7735150529438,-0.521857380867004,0.0475519709289074,-0.116041027009487
-8.31384703022048,-8.31781521071268,1.63231184734648,50.7823455633448,-0.517473578453064,0.0456000119447708,-0.118579290807247
-8.27228890310798,-8.1585118511618,1.51551635592389,50.7711602501702,-0.512551844120026,0.0436277836561203,-0.121162489056587
-8.19656520034049,-8.0611413985465,1.39097499966054,50.7305399023255,-0.507054388523102,0.0416541807353497,-0.123877823352814
-8.11664572512414,-8.02901577302376,1.28101409486216,50.6693150302117,-0.501022577285767,0.0396937355399132,-0.126784861087799
-8.06070209247269,-8.05368957819329,1.20522612318483,50.5927839400695,-0.494456470012665,0.0377464517951012,-0.129883617162704
-8.05590692395971,-8.1181064252466,1.17469830293003,50.514486747847,-0.487356066703796,0.0358123257756233,-0.133174076676369
-8.11864371200454,-8.20090442917118,1.18836747617844,50.4450200660256,-0.479679226875305,0.0338673815131187,-0.136635899543762
-8.24851285923112,-8.27757538080533,1.23955093600863,50.385561295992,-0.471496403217316,0.0318731106817722,-0.140226945281029
-8.42873127584399,-8.32973812327782,1.30744116314243,50.3467070502275,-0.462920248508453,0.0298149790614843,-0.143925413489342
-8.62393459405993,-8.34116424781941,1.37457199176244,50.319626818331,-0.453950762748718,0.0276929885149002,-0.14773128926754
-8.79416307627077,-8.30688587419463,1.42302161694294,50.3060867023828,-0.44458794593811,0.0255071390420198,-0.151644587516785
-8.90005638093243,-8.22955253852908,1.43714642929964,50.2954900899016,-0.434783816337585,0.0232036616653204,-0.155668199062347
-8.90984651664644,-8.11479450508962,1.41239003774972,50.2825386746467,-0.424511522054672,0.0207651183009148,-0.159753456711769
-8.81414294507485,-7.97751541458268,1.35513138980913,50.256635844137,-0.413792133331299,0.0182278417050838,-0.163848757743835
-8.62553298356426,-7.83344688775392,1.27585018496831,50.2277895101603,-0.402625620365143,0.0155918309465051,-0.167954102158546
-8.37998039596202,-7.69533981720773,1.19292386726125,50.1977657747969,-0.391012012958527,0.012857086956501,-0.172069489955902
-8.12943284115875,-7.57528271151709,1.12746371537161,50.1712742435938,-0.37889751791954,0.0100621227174997,-0.176147684454918
-7.93482891900693,-7.48437050320791,1.09192386492572,50.1589115290323,-0.366282880306244,0.0072214696556329,-0.180146545171738
-7.84731709364503,-7.42376236433512,1.09541709808921,50.1695081415136,-0.353222608566284,0.0043111508712172,-0.184071153402328
-7.90865529087358,-7.39412067893013,1.13672837723998,50.2012979789573,-0.339716672897339,0.0013311670627445,-0.18792150914669
-8.12863364640659,-7.38617207055337,1.2041629652655,50.2525149392832,-0.32576510310173,-0.0017184815369546,-0.191697612404823
-8.48867088225626,-7.38981518272605,1.27797650080696,50.3102076072366,-0.311364233493805,-0.0048683122731745,-0.195342794060707
-8.93721893690804,-7.38650326256907,1.33477950963927,50.3608358668692,-0.29658967256546,-0.0081532020121812,-0.198772743344307
-9.40874384068452,-7.36431339751728,1.35270131456497,50.3920370036195,-0.28152060508728,-0.0115775093436241,-0.201959863305092
-9.82592350131388,-7.30983231093491,1.31579454679424,50.3790855883646,-0.266157031059265,-0.0151412338018417,-0.204904153943062
-10.1200271701101,-7.21660175851584,1.2167689805946,50.3178607162508,-0.250498950481415,-0.0188443753868341,-0.207605615258217
-10.2403059803107,-7.08826485243275,1.06002912734608,50.1989431761837,-0.234560877084732,-0.022659320384264,-0.210117280483246
-10.1701766408083,-6.94005642540776,0.863800551379918,50.0317521792576,-0.21839950978756,-0.0265344809740782,-0.212512537837029
-9.92322546238979,-6.79201359439062,0.654358441273615,49.8262956372603,-0.202056989073753,-0.0304458755999804,-0.214811727404594
-9.54820332493706,-6.67195648869999,0.462686256390255,49.5990571696072,-0.185533314943314,-0.0343935042619705,-0.217014864087105
-9.11144339287969,-6.60604927757603,0.320830614012238,49.3800605116618,-0.16882848739624,-0.0383773669600487,-0.219121932983398
-8.69726071257094,-6.61631623006268,0.25081407103979,49.1852005821458,-0.152003541588783,-0.0424345172941685,-0.221124216914177
-8.3759844222012,-6.71136833856809,0.265394522504768,49.0427350143425,-0.135167464613914,-0.0465482473373413,-0.223010092973709
-8.20235936229367,-6.88590653084109,0.363660690190611,48.9585508151861,-0.118368230760098,-0.0506647825241089,-0.224776640534401
-8.19976197934914,-7.11658176977495,0.527842648874377,48.9455993999312,-0.101605832576752,-0.0547841228544712,-0.226423874497414
-8.3584021376536,-7.36994366178415,0.731057691167512,48.9991711630308,-0.0848802700638771,-0.0589062683284283,-0.227951779961586
-8.64111728123145,-7.60575237696134,0.940196041868293,49.1186774037914,-0.0682242438197136,-0.0629977956414223,-0.22931095957756
-8.98517062203785,-7.78260891334423,1.12032536934188,49.2740943868494,-0.0517242178320885,-0.0670637860894203,-0.230499222874641
-9.32043282057045,-7.87401790967696,1.245018605308,49.4471723907096,-0.0354339629411697,-0.0711427554488182,-0.231563791632652
-9.5855656796007,-7.86474453323741,1.29832838097682,49.6226051973433,-0.0193534847348928,-0.0752346962690353,-0.232504680752754
-9.73441570219116,-7.76058464430029,1.28101409486216,49.777433479708,-0.0034827794879674,-0.0793396160006523,-0.233321875333786
-9.75099899329855,-7.58621204803514,1.20674492021243,49.9010606253224,0.0121243791654706,-0.0834444314241409,-0.234019011259079
-9.64750327289337,-7.37607071407457,1.1042261208493,49.9775917154646,0.027410589158535,-0.087505541741848,-0.234656408429146
-9.46548666808813,-7.17437477651431,1.00383363732481,50.0082041515215,0.0423722118139267,-0.0914924293756485,-0.235290721058846
-9.26289079841468,-7.01523701297127,0.939284763651732,49.9964301376534,0.0570092499256134,-0.0954050943255425,-0.235921964049339
-9.10245245191785,-6.92349682462285,0.935184011677207,49.9516888849549,0.0713217034935951,-0.0992435365915298,-0.236550137400627
-9.04231304681754,-6.90362530368095,0.999429125944768,49.8857544072939,0.085255078971386,-0.103017203509808,-0.237143263220787
-9.11923554171328,-6.94303715354905,1.12731183566885,49.8245295351801,0.098769411444664,-0.106763146817684,-0.237616315484047
-9.34201107887887,-7.01126270878289,1.2987840200851,49.777433479708,0.111879229545593,-0.110508978366852,-0.237916260957718
-9.69365676983082,-7.06971809955364,1.48149530250561,49.7662481665333,0.124584540724754,-0.11425469815731,-0.2380430996418
-10.1324146887686,-7.08147541611093,1.64096899040381,49.8033363102177,0.136885330080986,-0.118000313639641,-0.237996831536293
-10.5967468397756,-7.01871452913611,1.74485470709178,49.8939962170015,0.148698776960373,-0.121731281280518,-0.237782537937164
-11.0253150256233,-6.87183087017391,1.77523064764382,50.0399939889652,0.160003066062927,-0.125396013259888,-0.237414017319679
-11.3619758149722,-6.651091391711,1.72738854127436,50.236031319868,0.17085924744606,-0.128957450389862,-0.236899986863136
-11.5679682623423,-6.38431622306602,1.61530132063734,50.4709228965353,0.181267321109772,-0.132415592670441,-0.236240461468697
-11.6279078687546,-6.11373234624051,1.47071184360964,50.7211206912311,0.191227272152901,-0.135770440101624,-0.235435426235199
-11.5535827568034,-5.88686581548718,1.32976747944818,50.9654314789928,0.200655549764633,-0.138975486159325,-0.234423115849495
-11.3773603139513,-5.74528122877615,1.23286822908718,51.1814846334713,0.209501296281815,-0.142017662525177,-0.233191192150116
-11.1417976607511,-5.71812348348889,1.21130131129523,51.3504417324776,0.217797189950943,-0.144930377602577,-0.23178905248642
-10.8976436639652,-5.81731549219053,1.28055845575388,51.4493434489691,0.22554324567318,-0.147713646292686,-0.230216696858406
-10.6884544375864,-6.03209351437088,1.43851334662448,51.4740688780919,0.232739448547363,-0.150367453694344,-0.228474125266075
-10.5465973690773,-6.3387773209075,1.66481410373716,51.4246180198462,0.239351660013199,-0.152874365448952,-0.22655987739563
-10.4844599770966,-6.69795506193231,1.92346523753776,51.3045230783922,0.245399489998817,-0.155230015516281,-0.224468871951103
-10.4986456839475,-7.06971809955364,2.1713329124424,51.1379207821595,0.250936716794968,-0.15744748711586,-0.222197473049164
-10.569174620826,-7.41068027971504,2.36862464632788,50.9436495533369,0.255963325500488,-0.159526780247688,-0.219745680689812
-10.6674755753421,-7.69169670503505,2.48420510012839,50.7446687189671,0.260479331016541,-0.161467894911766,-0.217113494873047
-10.7627795495376,-7.89289585457176,2.50501261940653,50.571590715107,0.264460742473602,-0.163251936435699,-0.214330703020096
-10.8273145257748,-8.01146259619175,2.43514795613685,50.4473748687992,0.267938077449799,-0.164850577712059,-0.211459055542946
-10.8464951998267,-8.05153683009125,2.29982314097752,50.373787282124,0.270965844392776,-0.166254356503487,-0.20853054523468
-10.8149270071162,-8.02984375306301,2.13108479121094,50.3696663772702,0.273544043302536,-0.167463272809982,-0.205545157194138
-10.7420004859813,-7.96493011798614,1.97054794539342,50.4261816438367,0.275672674179077,-0.168477341532707,-0.202502891421318
-10.6431001354011,-7.8755082737476,1.85117049902391,50.5309703672623,0.277286320924759,-0.169293642044067,-0.199373230338097
-10.5404036097481,-7.7791313971794,1.79983515949097,50.6752020371457,0.2784024477005,-0.169923797249794,-0.19612056016922
-10.4566879594589,-7.68258892460334,1.82383215252708,50.835328625751,0.279103875160217,-0.170382350683212,-0.192739799618721
-10.4101348651454,-7.5934982723805,1.91602313210252,50.9978100171299,0.279390603303909,-0.170669287443161,-0.1892309486866
-10.41273224809,-7.51235622853442,2.05575245864189,51.1443964897869,0.279262632131577,-0.170784622430801,-0.185594007372856
-10.4632813161643,-7.43386372081392,2.21613742475665,51.2674349347079,0.278682887554169,-0.170718893408775,-0.1818006336689
-10.5551887126631,-7.35768955720331,2.3689284057334,51.3675140525862,0.277697890996933,-0.170509174466133,-0.177884250879288
-10.6734695359833,-7.2821777776241,2.4910396867526,51.4340372309406,0.276391208171844,-0.1702019572258,-0.173906624317169
-10.8015404950175,-7.20865315013908,2.57032089159341,51.4728914767051,0.274762809276581,-0.169797241687775,-0.169867753982544
-10.9186225262095,-7.14158676696017,2.60768329847242,51.4923185995874,0.272812724113464,-0.169295027852058,-0.165767639875412
-11.0077327410757,-7.09025200452694,2.61269532866351,51.4905524975072,0.27051043510437,-0.16871565580368,-0.161618620157242
-11.05828180915,-7.06276306722398,2.60525322322826,51.4764236808656,0.267859548330307,-0.168096914887428,-0.15743450820446
-11.0618781855348,-7.07054607959289,2.60267126828134,51.4487547482757,0.264894247055054,-0.167456239461899,-0.153216764330864
-11.0187216689179,-7.12254322605752,2.62469382518156,51.4093118018178,0.261614501476288,-0.166793629527092,-0.148965373635292
-10.9348062199408,-7.22074165871207,2.67663668352555,51.3592722428786,0.258020341396332,-0.166109099984169,-0.144680336117744
-10.8217201625096,-7.36348541747803,2.76138555766573,51.2980473707648,0.254067420959473,-0.165367752313614,-0.140368923544884
-10.6940488008515,-7.54199791393942,2.86982766543651,51.230935491717,0.24973538517952,-0.164553612470627,-0.136008605360985
-10.5617820693685,-7.73889156727205,2.9866231568591,51.165001014056,0.245048224925995,-0.16368556022644,-0.131569594144821
-10.4419028565439,-7.93528843258114,3.09703970076575,51.0984778357016,0.240005940198898,-0.162763610482216,-0.127051889896393
-10.3412043177713,-8.10585232066577,3.18209233431146,51.0472608753756,0.23460853099823,-0.161787748336792,-0.122455477714539
-10.2660800110679,-8.22905575050553,3.23631338819685,51.0195919427858,0.228832736611366,-0.160752892494202,-0.117772370576859
-10.2189275206903,-8.28751114127628,3.25408331341979,51.0272450518,0.222720712423325,-0.159656852483749,-0.113025099039078
-10.1925540938689,-8.27062034847567,3.23980662136033,51.0708089031117,0.216337844729424,-0.158502548933029,-0.108244173228741
-10.1821645620908,-8.18003933218218,3.20046977834544,51.1585253064286,0.209684148430824,-0.157289981842041,-0.103429593145847
-10.1769697962017,-8.02404789278829,3.15019759673182,51.2803863499628,0.202759608626366,-0.156019136309624,-0.0985813587903976
-10.168578251304,-7.82334553127512,3.10159609184856,51.4428677413417,0.195555508136749,-0.154682025313377,-0.0937496051192284
-10.1507961680684,-7.60459320490639,3.06605624140268,51.6300745618434,0.188100188970566,-0.153280109167099,-0.0890128016471863
-10.1200271701101,-7.39047756675745,3.0507163914239,51.8325876003736,0.180430695414543,-0.151822835206985,-0.0843992903828621
-10.0760714587411,-7.20765957409199,3.05755097804811,52.0262701285028,0.172547042369843,-0.150310188531876,-0.0799090713262558
-10.0253225919787,-7.07170525164783,3.08747127949186,52.208178642764,0.164449214935303,-0.148742169141769,-0.0755421370267868
-9.97617211472063,-6.99370953195089,3.13728782199721,52.3512329112606,0.156187355518341,-0.147123873233795,-0.0713697001338005
-9.93141720859947,-6.97102287887555,3.20305173329237,52.4507233284455,0.1478421241045,-0.14544004201889,-0.067450612783432
-9.89805082769664,-6.99619347206862,3.28005474259178,52.4925210776771,0.139444038271904,-0.143670320510864,-0.0637725293636322
-9.87667236807627,-7.05796078299635,3.36206978208229,52.477803560342,0.130993098020554,-0.141814708709717,-0.0603354386985302
-9.85849068746455,-7.14407070707791,3.44529985919487,52.4112803819876,0.122489295899868,-0.139873206615448,-0.0571393445134163
-9.83851081866046,-7.24110996767751,3.52488482344121,52.3070803592555,0.113938443362713,-0.137834191322327,-0.0541580878198147
-9.80114846399681,-7.34295151250474,3.59657204314402,52.1775662067071,0.105390682816505,-0.135720923542976,-0.0513582415878773
-9.7346155008792,-7.44678020942616,3.6565645257343,52.0545277617861,0.0968903377652168,-0.13356825709343,-0.0487325377762318
-9.63111978047402,-7.55243046243391,3.70349535388719,51.956214745988,0.0884374007582664,-0.131376206874847,-0.0462809726595879
-9.49046150409324,-7.66056465555941,3.73645324938616,51.9032316835819,0.0800318792462349,-0.12914477288723,-0.0440035499632359
-9.31943382713025,-7.76952682872415,3.7572607686643,51.9091186905159,0.0717355310916901,-0.126882672309875,-0.0419264249503613
-9.13282185250006,-7.87451469770051,3.77032242310168,51.9768192702571,0.0636333674192429,-0.12460370361805,-0.0400837473571301
-8.95380222801543,-7.96509571399399,3.78292843843077,52.1098656269659,0.0557486452162266,-0.122312963008881,-0.0384835079312325
-8.8065505949293,-8.02305431674119,3.80085024335648,52.2864758349864,0.0480813607573509,-0.120010443031788,-0.0371257066726685
-8.7102476272936,-8.03547401732988,3.83122618390851,52.4889888735166,0.0406315140426159,-0.117696143686771,-0.0360103435814381
-8.67628185032665,-7.98662319501438,3.87694197443933,52.6926793134337,0.0334397964179516,-0.115373700857162,-0.0351773798465729
-8.70565225746866,-7.87037479750428,3.93845325405721,52.8739991270014,0.0265556182712317,-0.113054729998112,-0.0346166417002678
-8.78477253793285,-7.68904716890946,4.0128743084097,53.0176420961915,0.0199876986443996,-0.11074723303318,-0.0342779941856861
-8.89086564128255,-7.45621918187356,4.08987731770912,53.1071246015885,0.0137360347434878,-0.108451209962368,-0.0341614335775375
-8.99216357611928,-7.19954536970738,4.16065325919537,53.1389144390322,0.0078006274998188,-0.106166653335094,-0.0342669561505318
-9.05490036416412,-6.94916420583946,4.21153295962003,53.11948731615,0.0022236201912164,-0.103908099234104,-0.0345713123679161
-9.05370157203587,-6.74167240800448,4.23522619325062,53.0600285461164,-0.0030029802583158,-0.101684994995594,-0.0349800400435925
-8.97338249944344,-6.60753964164667,4.22383521554361,52.9705460407193,-0.0079293120652437,-0.0994922518730164,-0.0354219302535057
-8.81154556213032,-6.56630623569223,4.17523371066035,52.8651686166004,-0.0125553756952286,-0.0973298624157906,-0.0358969792723656
-8.58617264202021,-6.62823914262781,4.09458558849468,52.7586137910947,-0.0168811716139317,-0.0951978340744972,-0.036405187100172
-8.32463615937469,-6.78439617802956,3.98583972131839,52.6591233739098,-0.0208347644656897,-0.0930939838290215,-0.0369581803679466
-8.0636990727933,-7.01225628482999,3.85719761308051,52.5661086643523,-0.02435003221035,-0.0910277590155602,-0.037593737244606
-7.8413231330038,-7.2828401616555,3.72050588059634,52.4848679686628,-0.0274327881634235,-0.0890107825398445,-0.0383380204439163
-7.68927633140469,-7.55955109077143,3.58457354662597,52.4101029806008,-0.0300830323249102,-0.0870430544018745,-0.0391910262405872
-7.62853753024026,-7.80579235444311,3.45745023541569,52.3482894077936,-0.0323007665574551,-0.0851245746016502,-0.0401527509093285
-7.66410169671154,-7.99639335947748,3.34490737567039,52.2947176446941,-0.0340474806725979,-0.0832894966006279,-0.0412384569644928
-7.78637849379256,-8.11197937295618,3.25317203520323,52.2535085961559,-0.0353464260697365,-0.0815632417798042,-0.0424372404813766
-7.97319026711078,-8.1487416866987,3.18771188331359,52.2299605684199,-0.0362593643367291,-0.0799371004104614,-0.0437229424715042
-8.19316862264379,-8.11065460489339,3.15323519078702,52.2299605684199,-0.0367862991988659,-0.0784110650420189,-0.0450955629348755
-8.41474536768113,-8.01311855627024,3.15323519078702,52.2511537933823,-0.0369272269308567,-0.0769851431250572,-0.0465551018714905
-8.60914949114491,-7.87219635359062,3.19150887588259,52.2923628419205,-0.0365818776190281,-0.0756615102291107,-0.0481335297226906
-8.75440313735063,-7.70924988186706,3.26805624607373,52.354765115421,-0.0356906689703465,-0.0744387060403824,-0.049822848290205
-8.83871818370388,-7.53967956982953,3.37801715087211,52.4189334910018,-0.0342942923307419,-0.0733131021261215,-0.0515830963850021
-8.86369301970899,-7.378885846208,3.51182316900383,52.4801583631156,-0.0323927477002144,-0.0722846984863281,-0.0534142702817917
-8.83332361912678,-7.23283016728506,3.65686828513982,52.5254883165076,-0.0299860332161188,-0.0713534951210022,-0.0553163699805737
