EOG_left_h,EOG_right_h,EOG_left_v,EOG_right_v,head_horizontal,head_frontal,head_sagittal
8.53247142846519,-0.570882613054748,31.1860409223223,6.19982149001045,0.0,0.0,0.0
8.53247142846519,-0.570882613054748,31.1860409223223,6.19982149001045,0.000829129363410175,0.00269422843120992,-0.00130954966880381
8.53247142846519,-0.570882613054748,31.1860409223223,6.19982149001045,0.00165738991927356,0.0053835934959352,-0.0026170308701694
8.53247142846519,-0.570882613054748,31.1860409223223,6.19982149001045,0.002484783064574,0.00806810054928064,-0.00392244663089514
8.53247142846519,-0.570882613054748,31.1860409223223,6.19982149001045,0.00331131019629538,0.0107477558776736,-0.0052257995121181
8.53247142846519,-0.570882613054748,31.1860409223223,6.19982149001045,0.00413697259500623,0.0134225646033883,-0.00652709184214473
8.53247142846519,-0.570882613054748,31.1860409223223,6.19982149001045,0.00496177189052105,0.0160925332456827,-0.00782632641494274
8.53247142846519,-0.570882613054748,31.1860409223223,6.19982149001045,0.00578570878133178,0.0187576655298471,-0.00912350602447987
8.53247142846519,-0.570882613054748,31.1860409223223,6.19982149001045,0.00660878513008356,0.0214179679751396,-0.0104186339303851
8.53247142846519,-0.570882613054748,31.1860409223223,6.19982149001045,0.00743100233376026,0.0240734461694956,-0.0117117119953036
8.53247142846519,-0.570882613054748,31.1860409223223,6.19982149001045,0.00825236178934574,0.0267241057008505,-0.0130027439445257
8.53247142846519,-0.570882613054748,31.1860409223223,6.19982149001045,0.00907286442816257,0.0293699540197849,-0.0142917316406965
8.53247142846519,-0.570882613054748,31.1860409223223,6.19982149001045,0.00989251211285591,0.0320109948515892,-0.0155786778777838
8.53247142846519,-0.570882613054748,31.1860409223223,6.19982149001045,0.0107113057747483,0.0346472337841988,-0.0168635845184326
8.53247142846519,-0.570882613054748,31.1860409223223,6.19982149001045,0.011529247276485,0.0372786745429039,-0.0181464552879334
8.53247142846519,-0.570882613054748,31.1860409223223,6.19982149001045,0.0123463375493884,0.0399053245782852,-0.0194272939115763
8.53247142846519,-0.570882613054748,31.1860409223223,6.19982149001045,0.0131625775247812,0.0425271913409233,-0.0207061022520065
8.53247142846519,-0.570882613054748,31.1860409223223,6.19982149001045,0.0139779690653086,0.0451442785561085,-0.0219828821718693
8.53247142846519,-0.570882613054748,31.1860409223223,6.19982149001045,0.0147925140336156,0.047756589949131,-0.0232576355338097
8.53247142846519,-0.570882613054748,31.1860409223223,6.19982149001045,0.0156062133610249,0.0503641329705715,-0.0245303679257631
8.53247142846519,-0.570882613054748,31.1860409223223,6.19982149001045,0.0164190679788589,0.0529669150710106,-0.0258010793477297
8.53247142846519,-0.570882613054748,31.1860409223223,6.19982149001045,0.0172310788184404,0.0555649399757385,-0.0270697735249996
8.53247142846519,-0.570882613054748,31.1860409223223,6.19982149001045,0.0180422477424145,0.0581582114100456,-0.0283364541828632
8.53247142846519,-0.570882613054748,31.1860409223223,6.19982149001045,0.0188525766134262,0.0607467368245125,-0.0296011213213205
8.53247142846519,-0.570882613054748,31.1860409223223,6.19982149001045,0.0196620672941208,0.0633305236697197,-0.030863780528307
8.53247142846519,-0.570882613054748,31.1860409223223,6.19982149001045,0.0204707197844982,0.0659095719456673,-0.0321244336664677
8.53247142846519,-0.570882613054748,31.1860409223223,6.19982149001045,0.0212785359472036,0.0684838891029358,-0.0333830825984478
8.53247142846519,-0.570882613054748,31.1860409223223,6.19982149001045,0.0220855176448822,0.0710534825921059,-0.0346397310495377
8.53247142846519,-0.570882613054748,31.1860409223223,6.19982149001045,0.0228916648775339,0.0736183598637581,-0.0358943790197372
8.53247142846519,-0.570882613054748,31.1860409223223,6.19982149001045,0.0236969795078039,0.0761785209178925,-0.0371470302343369
8.53247142846519,-0.570882613054748,31.1860409223223,6.19982149001045,0.0245014633983374,0.0787339806556702,-0.0383976884186268
8.53247142846519,-0.570882613054748,31.1860409223223,6.19982149001045,0.0253051184117794,0.0812847316265106,-0.0396463572978973
8.53247142846519,-0.570882613054748,31.1860409223223,6.19982149001045,0.02610794454813,0.083830788731575,-0.0408930368721485
8.53247142846519,-0.570882613054748,31.1860409223223,6.19982149001045,0.0269099436700344,0.0863721519708633,-0.0421377308666706
8.53247142846519,-0.570882613054748,31.1860409223223,6.19982149001045,0.0277111176401377,0.0889088362455368,-0.0433804430067539
8.53247142846519,-0.570882613054748,31.1860409223223,6.19982149001045,0.0285114664584398,0.0914408341050148,-0.0446211770176888
8.53247142846519,-0.570882613054748,31.1860409223223,6.19982149001045,0.029310991987586,0.0939681604504585,-0.0458599328994751
8.53247142846519,-0.570882613054748,31.1860409223223,6.19982149001045,0.0301096960902214,0.096490815281868,-0.0470967143774033
8.53247142846519,-0.570882613054748,31.1860409223223,6.19982149001045,0.0309075806289911,0.0990088060498238,-0.0483315214514732
8.53247142846519,-0.570882613054748,31.1860409223223,6.19982149001045,0.0317046456038952,0.101522140204906,-0.0495643615722656
8.53247142846519,-0.570882613054748,31.1860409223223,6.19982149001045,0.0325008928775787,0.104030825197697,-0.0507952347397804
8.53247142846519,-0.570882613054748,31.1860409223223,6.19982149001045,0.0332963243126869,0.106534861028194,-0.0520241409540176
8.53247142846519,-0.570882613054748,31.1860409223223,6.19982149001045,0.0340909399092197,0.10903425514698,-0.0532510876655579
8.53247142846519,-0.570882613054748,31.1860409223223,6.19982149001045,0.0348847433924675,0.111529015004635,-0.0544760748744011
8.53247142846519,-0.570882613054748,31.1860409223223,6.19982149001045,0.0356777347624302,0.114019140601158,-0.0556991063058376
8.53247142846519,-0.570882613054748,31.1860409223223,6.19982149001045,0.0364699140191078,0.116504639387131,-0.0569201819598675
8.53247142846519,-0.570882613054748,31.1860409223223,6.19982149001045,0.0372612848877907,0.118985518813133,-0.0581393092870712
8.53247142846519,-0.570882613054748,31.1860409223223,6.19982149001045,0.0380518473684788,0.121461786329746,-0.0593564882874489
8.53247142846519,-0.570882613054748,31.1860409223223,6.19982149001045,0.0388416014611721,0.12393344193697,-0.0605717189610004
8.53247142846519,-0.570882613054748,31.1860409223223,6.19982149001045,0.039630550891161,0.126400500535965,-0.0617850087583065
8.53247142846519,-0.570882613054748,31.1860409223223,6.19982149001045,0.0404186956584454,0.128862962126732,-0.0629963576793671
8.53247142846519,-0.570882613054748,31.1860409223223,6.19982149001045,0.0412060357630253,0.131320834159851,-0.0642057657241821
8.53247142846519,-0.570882613054748,31.1860409223223,6.19982149001045,0.041992574930191,0.133774116635323,-0.0654132440686226
8.53247142846519,-0.570882613054748,31.1860409223223,6.19982149001045,0.0427783131599426,0.136222809553146,-0.0666187852621078
8.53247142846519,-0.570882613054748,31.1860409223223,6.19982149001045,0.0435632541775703,0.138666927814484,-0.0678223967552185
8.53247142846519,-0.570882613054748,31.1860409223223,6.19982149001045,0.0443473942577839,0.141106471419334,-0.0690240785479546
8.53247142846519,-0.570882613054748,31.1860409223223,6.19982149001045,0.0451307408511639,0.14354145526886,-0.0702238380908966
8.53247142846519,-0.570882613054748,31.1860409223223,6.19982149001045,0.04591329023242,0.14597187936306,-0.0714216753840446
8.53247142846519,-0.570882613054748,31.1860409223223,6.19982149001045,0.0466950461268425,0.148397743701935,-0.0726175904273987
8.53247142846519,-0.570882613054748,31.1860409223223,6.19982149001045,0.0474760085344315,0.150819063186646,-0.0738115906715393
8.53247142846519,-0.570882613054748,31.1860409223223,6.19982149001045,0.0482561811804771,0.153235837817192,-0.0750036761164665
8.53247142846519,-0.570882613054748,31.1860409223223,6.19982149001045,0.0490355640649796,0.155648082494736,-0.0761938542127609
8.53247142846519,-0.570882613054748,31.1860409223223,6.19982149001045,0.0498141571879387,0.158055782318115,-0.0773821175098419
8.53247142846519,-0.570882613054748,31.1860409223223,6.19982149001045,0.0505919642746449,0.160458952188492,-0.0785684734582901
8.53247142846519,-0.570882613054748,31.1860409223223,6.19982149001045,0.051368985325098,0.162857607007027,-0.0797529295086861
8.53247142846519,-0.570882613054748,31.1860409223223,6.19982149001045,0.0521452203392982,0.16525174677372,-0.0809354856610298
8.53247142846519,-0.570882613054748,31.1860409223223,6.19982149001045,0.0529206730425358,0.167641371488571,-0.0821161419153214
8.53247142846519,-0.570882613054748,31.1860409223223,6.19982149001045,0.0536953434348106,0.170026496052742,-0.0832948982715607
8.53247142846519,-0.570882613054748,31.1860409223223,6.19982149001045,0.0544692315161228,0.172407120466232,-0.0844717621803284
8.53247142846519,-0.570882613054748,31.1860409223223,6.19982149001045,0.0552423410117626,0.174783244729042,-0.0856467336416245
8.53247142846519,-0.570882613054748,31.1860409223223,6.19982149001045,0.05601467192173,0.177154883742332,-0.0868198201060295
8.53247142846519,-0.570882613054748,31.1860409223223,6.19982149001045,0.0567862242460251,0.179522037506104,-0.0879910215735435
8.53247142846519,-0.570882613054748,31.1860409223223,6.19982149001045,0.057557001709938,0.181884706020355,-0.0891603380441666
8.53247142846519,-0.570882613054748,31.1860409223223,6.19982149001045,0.0583270043134689,0.184242904186249,-0.0903277695178986
8.53247142846519,-0.570882613054748,31.1860409223223,6.19982149001045,0.059096235781908,0.186596632003784,-0.0914933234453201
8.53247142846519,-0.570882613054748,31.1860409223223,6.19982149001045,0.0598646961152554,0.188945904374123,-0.0926569998264313
8.53247142846519,-0.570882613054748,31.1860409223223,6.19982149001045,0.0606323853135109,0.191290706396103,-0.0938188061118126
8.53247142846519,-0.570882613054748,31.1860409223223,6.19982149001045,0.0613993033766747,0.193631067872047,-0.0949787423014641
8.53247142846519,-0.570882613054748,31.1860409223223,6.19982149001045,0.0621654540300369,0.195966973900795,-0.0961368083953857
8.53247142846519,-0.570882613054748,31.1860409223223,6.19982149001045,0.0629308372735977,0.198298439383507,-0.0972930118441582
8.53247142846519,-0.570882613054748,31.1860409223223,6.19982149001045,0.063695453107357,0.200625464320183,-0.0984473526477814
8.53247142846519,-0.570882613054748,31.1860409223223,6.19982149001045,0.0644593089818954,0.202948063611984,-0.0995998308062553
8.53247142846519,-0.570882613054748,31.1860409223223,6.19982149001045,0.065222404897213,0.205266237258911,-0.100750453770161
8.53247142846519,-0.570882613054748,31.1860409223223,6.19982149001045,0.065984733402729,0.207579985260963,-0.101899221539497
8.53247142846519,-0.570882613054748,31.1860409223223,6.19982149001045,0.0667463019490242,0.209889322519302,-0.103046134114265
8.53247142846519,-0.570882613054748,31.1860409223223,6.19982149001045,0.0675071105360985,0.212194249033928,-0.104191198945045
8.53247142846519,-0.570882613054748,31.1860409223223,6.19982149001045,0.0682671666145325,0.214494779706001,-0.105334416031837
8.53247142846519,-0.570882613054748,31.1860409223223,6.19982149001045,0.0690264627337456,0.216790899634361,-0.106475785374641
8.53247142846519,-0.570882613054748,31.1860409223223,6.19982149001045,0.0697850063443184,0.21908263862133,-0.107615314424038
8.53247142846519,-0.570882613054748,31.1860409223223,6.19982149001045,0.0705427974462509,0.221369981765747,-0.108753003180027
8.53247142846519,-0.570882613054748,31.1860409223223,6.19982149001045,0.0712998360395432,0.223652943968773,-0.109888859093189
8.53247142846519,-0.570882613054748,31.1860409223223,6.19982149001045,0.0720561221241951,0.225931525230408,-0.111022874712944
8.53247142846519,-0.570882613054748,31.1860409223223,6.19982149001045,0.0728116557002068,0.228205740451813,-0.112155057489872
8.53247142846519,-0.570882613054748,31.1860409223223,6.19982149001045,0.0735664442181587,0.230475589632988,-0.113285414874554
8.53247142846519,-0.570882613054748,31.1860409223223,6.19982149001045,0.074320487678051,0.232741072773933,-0.114413946866989
8.53247142846519,-0.570882613054748,31.1860409223223,6.19982149001045,0.075073778629303,0.23500220477581,-0.115540653467178
8.53247142846519,-0.570882613054748,31.1860409223223,6.19982149001045,0.0758263245224953,0.237258985638618,-0.116665534675121
8.53247142846519,-0.570882613054748,31.1860409223223,6.19982149001045,0.0765781328082085,0.239511415362358,-0.117788597941399
8.53247142846519,-0.570882613054748,31.1860409223223,6.19982149001045,0.077329196035862,0.24175950884819,-0.11890984326601
8.53247142846519,-0.570882613054748,31.1860409223223,6.19982149001045,0.0780795216560364,0.244003266096115,-0.120029278099537
8.53247142846519,-0.570882613054748,31.1860409223223,6.19982149001045,0.0788291022181511,0.246242687106133,-0.121146894991398
8.53247142846519,-0.570882613054748,31.1860409223223,6.19982149001045,0.0795779451727867,0.248477786779404,-0.122262708842754
8.53247142846519,-0.570882613054748,31.1860409223223,6.19982149001045,0.0803260505199432,0.25070858001709,-0.123376712203026
8.53247142846519,-0.570882613054748,31.1860409223223,6.19982149001045,0.0810734182596207,0.25293505191803,-0.124488912522793
8.53247142846519,-0.570882613054748,31.1860409223223,6.19982149001045,0.0818200558423996,0.255157202482224,-0.125599309802055
8.53247142846519,-0.570882613054748,31.1860409223223,6.19982149001045,0.0825659558176994,0.257375061511993,-0.126707911491394
8.53247142846519,-0.570882613054748,31.1860409223223,6.19982149001045,0.0833111256361008,0.259588629007339,-0.127814710140228
8.53247142846519,-0.570882613054748,31.1860409223223,6.19982149001045,0.0840555652976036,0.261797875165939,-0.128919720649719
8.53247142846519,-0.570882613054748,31.1860409223223,6.19982149001045,0.0847992748022079,0.264002859592438,-0.130022943019867
8.53247142846519,-0.570882613054748,31.1860409223223,6.19982149001045,0.0855422541499138,0.266203552484512,-0.13112436234951
8.53247142846519,-0.570882613054748,31.1860409223223,6.19982149001045,0.0862845107913017,0.268399953842163,-0.132224008440971
8.53247142846519,-0.570882613054748,31.1860409223223,6.19982149001045,0.0870260372757912,0.270592093467712,-0.133321866393089
8.53247142846519,-0.570882613054748,31.1860409223223,6.19982149001045,0.0877668410539627,0.27277997136116,-0.134417936205864
8.53247142846519,-0.570882613054748,31.1860409223223,6.19982149001045,0.0885069221258163,0.274963587522507,-0.135512232780457
8.53247142846519,-0.570882613054748,31.1860409223223,6.19982149001045,0.0892462804913521,0.277142941951752,-0.136604756116867
8.53247142846519,-0.570882613054748,31.1860409223223,6.19982149001045,0.0899849161505699,0.279318034648895,-0.137695506215096
8.53247142846519,-0.570882613054748,31.1860409223223,6.19982149001045,0.0907228365540504,0.28148889541626,-0.138784483075142
8.53247142846519,-0.570882613054748,31.1860409223223,6.19982149001045,0.0914600417017937,0.283655524253845,-0.139871686697006
8.53247142846519,-0.570882613054748,31.1860409223223,6.19982149001045,0.092196524143219,0.285817891359329,-0.140957117080688
8.53247142846519,-0.570882613054748,31.1860409223223,6.19982149001045,0.092932291328907,0.287976026535034,-0.14204078912735
8.53247142846519,-0.570882613054748,31.1860409223223,6.19982149001045,0.0936673432588577,0.290129959583282,-0.14312270283699
8.53247142846519,-0.570882613054748,31.1860409223223,6.19982149001045,0.0944016873836517,0.292279660701752,-0.14420285820961
8.53247142846519,-0.570882613054748,31.1860409223223,6.19982149001045,0.0951353162527084,0.294425159692764,-0.145281255245209
8.53247142846519,-0.570882613054748,31.1860409223223,6.19982149001045,0.0958682373166084,0.296566426753998,-0.146357893943787
8.53247142846519,-0.570882613054748,31.1860409223223,6.19982149001045,0.0966004431247711,0.298703491687775,-0.147432789206505
8.53247142846519,-0.570882613054748,31.1860409223223,6.19982149001045,0.0973319411277771,0.300836354494095,-0.148505926132202
8.53247142846519,-0.570882613054748,31.1860409223223,6.19982149001045,0.098062738776207,0.302965044975281,-0.14957731962204
8.53247142846519,-0.570882613054748,31.1860409223223,6.19982149001045,0.0987928286194801,0.30508953332901,-0.150646969676018
8.53247142846519,-0.570882613054748,31.1860409223223,6.19982149001045,0.0995222106575966,0.307209849357605,-0.151714876294136
8.53247142846519,-0.570882613054748,31.1860409223223,6.19982149001045,0.100250892341137,0.309325993061066,-0.152781039476395
8.53247142846519,-0.570882613054748,31.1860409223223,6.19982149001045,0.100978873670101,0.31143793463707,-0.153845474123955
8.53247142846519,-0.570882613054748,31.1860409223223,6.19982149001045,0.101706154644489,0.313545733690262,-0.154908165335655
8.53247142846519,-0.570882613054748,31.1860409223223,6.19982149001045,0.102432735264301,0.31564936041832,-0.155969128012657
8.53247142846519,-0.570882613054748,31.1860409223223,6.19982149001045,0.103158615529537,0.317748814821243,-0.157028362154961
8.53247142846519,-0.570882613054748,31.1860409223223,6.19982149001045,0.103883802890778,0.319844126701355,-0.158085867762566
8.53247142846519,-0.570882613054748,31.1860409223223,6.19982149001045,0.104608289897442,0.321935296058655,-0.159141644835472
8.53247142846519,-0.570882613054748,31.1860409223223,6.19982149001045,0.105332084000111,0.324022322893143,-0.160195708274841
8.53247142846519,-0.570882613054748,31.1860409223223,6.19982149001045,0.106055185198784,0.326105207204819,-0.161248043179512
8.53247142846519,-0.570882613054748,31.1860409223223,6.19982149001045,0.106777593493462,0.328183948993683,-0.162298664450645
8.53247142846519,-0.570882613054748,31.1860409223223,6.19982149001045,0.107499308884144,0.330258578062058,-0.163347572088242
8.53247142846519,-0.570882613054748,31.1860409223223,6.19982149001045,0.108220338821411,0.332329094409943,-0.1643947660923
8.53247142846519,-0.570882613054748,31.1860409223223,6.19982149001045,0.108940675854683,0.334395498037338,-0.165440246462822
8.53247142846519,-0.570882613054748,31.1860409223223,6.19982149001045,0.10966032743454,0.336457788944244,-0.166484028100967
8.53247142846519,-0.570882613054748,31.1860409223223,6.19982149001045,0.110379293560982,0.338515967130661,-0.167526096105576
8.53247142846519,-0.570882613054748,31.1860409223223,6.19982149001045,0.111097574234009,0.340570032596588,-0.168566465377808
8.53247142846519,-0.570882613054748,31.1860409223223,6.19982149001045,0.111815169453621,0.342620015144348,-0.169605135917664
8.53247142846519,-0.570882613054748,31.1860409223223,6.19982149001045,0.112532086670399,0.344665884971619,-0.170642107725143
8.53247142846519,-0.570882613054748,31.1860409223223,6.19982149001045,0.113248325884342,0.346707671880722,-0.171677380800247
8.53247142846519,-0.570882613054748,31.1860409223223,6.19982149001045,0.113963879644871,0.348745375871658,-0.172710970044136
8.53247142846519,-0.570882613054748,31.1860409223223,6.19982149001045,0.114678755402565,0.35077902674675,-0.173742860555649
8.53247142846519,-0.570882613054748,31.1860409223223,6.19982149001045,0.115392953157425,0.352808594703674,-0.174773067235947
8.53247142846519,-0.570882613054748,31.1860409223223,6.19982149001045,0.116106480360031,0.354834109544754,-0.17580159008503
8.53247142846519,-0.570882613054748,31.1860409223223,6.19982149001045,0.116819329559803,0.356855541467667,-0.176828429102898
8.53247142846519,-0.570882613054748,31.1860409223223,6.19982149001045,0.117531508207321,0.358872920274735,-0.177853584289551
8.53247142846519,-0.570882613054748,31.1860409223223,6.19982149001045,0.118243008852005,0.360886245965958,-0.17887707054615
8.53247142846519,-0.570882613054748,31.1860409223223,6.19982149001045,0.118953838944435,0.362895548343658,-0.179898872971535
8.53247142846519,-0.570882613054748,31.1860409223223,6.19982149001045,0.119663998484612,0.364900797605515,-0.180919006466866
8.53247142846519,-0.570882613054748,31.1860409223223,6.19982149001045,0.120373494923115,0.366902023553848,-0.181937471032143
8.53247142846519,-0.570882613054748,31.1860409223223,6.19982149001045,0.121082320809364,0.36889922618866,-0.182954266667366
8.53247142846519,-0.570882613054748,31.1860409223223,6.19982149001045,0.121790483593941,0.370892375707626,-0.183969393372536
8.53247142846519,-0.570882613054748,31.1860409223223,6.19982149001045,0.122497975826263,0.372881531715393,-0.184982866048813
8.53247142846519,-0.570882613054748,31.1860409223223,6.19982149001045,0.123204804956913,0.374866664409637,-0.185994669795036
8.53247142846519,-0.570882613054748,31.1860409223223,6.19982149001045,0.123910970985889,0.37684777379036,-0.187004819512367
8.53247142846519,-0.570882613054748,31.1860409223223,6.19982149001045,0.124616481363773,0.378824889659882,-0.188013315200806
8.53247142846519,-0.570882613054748,31.1860409223223,6.19982149001045,0.125321328639984,0.380798012018204,-0.189020156860352
8.53247142846519,-0.570882613054748,31.1860409223223,6.19982149001045,0.126025512814522,0.382767140865326,-0.190025344491005
8.53247142846519,-0.570882613054748,31.1860409223223,6.19982149001045,0.126729041337967,0.384732276201248,-0.191028878092766
8.53247142846519,-0.570882613054748,31.1860409223223,6.19982149001045,0.12743191421032,0.38669341802597,-0.192030772566795
8.53247142846519,-0.570882613054748,31.1860409223223,6.19982149001045,0.12813413143158,0.388650596141815,-0.193031013011932
8.53247142846519,-0.570882613054748,31.1860409223223,6.19982149001045,0.128835693001747,0.39060378074646,-0.194029614329338
8.53247142846519,-0.570882613054748,31.1860409223223,6.19982149001045,0.129536598920822,0.392553001642227,-0.195026576519012
8.53247142846519,-0.570882613054748,31.1860409223223,6.19982149001045,0.130236864089966,0.394498258829117,-0.196021899580956
8.53247142846519,-0.570882613054748,31.1860409223223,6.19982149001045,0.130936473608017,0.396439552307129,-0.197015598416328
8.53247142846519,-0.570882613054748,31.1860409223223,6.19982149001045,0.131635427474976,0.398376911878586,-0.19800765812397
8.53247142846519,-0.570882613054748,31.1860409223223,6.19982149001045,0.132333740592003,0.400310307741165,-0.198998093605042
8.53247142846519,-0.570882613054748,31.1860409223223,6.19982149001045,0.133031412959099,0.402239769697189,-0.199986904859543
8.53247142846519,-0.570882613054748,31.1860409223223,6.19982149001045,0.133728429675102,0.404165297746658,-0.200974076986313
8.53247142846519,-0.570882613054748,31.1860409223223,6.19982149001045,0.134424805641174,0.406086891889572,-0.201959639787674
8.53247142846519,-0.570882613054748,31.1860409223223,6.19982149001045,0.135120540857315,0.408004552125931,-0.202943578362465
8.53247142846519,-0.570882613054748,31.1860409223223,6.19982149001045,0.135815635323524,0.409918278455734,-0.203925892710686
8.53247142846519,-0.570882613054748,31.1860409223223,6.19982149001045,0.136510089039803,0.411828100681305,-0.204906597733498
8.53247142846519,-0.570882613054748,31.1860409223223,6.19982149001045,0.137203902006149,0.41373398900032,-0.205885693430901
8.53247142846519,-0.570882613054748,31.1860409223223,6.19982149001045,0.137897074222565,0.415635973215103,-0.206863179802895
8.53247142846519,-0.570882613054748,31.1860409223223,6.19982149001045,0.138589605689049,0.417534053325653,-0.20783905684948
8.53247142846519,-0.570882613054748,31.1860409223223,6.19982149001045,0.139281511306763,0.41942822933197,-0.208813324570656
8.53247142846519,-0.570882613054748,31.1860409223223,6.19982149001045,0.139972776174545,0.421318531036377,-0.209785982966423
8.53247142846519,-0.570882613054748,31.1860409223223,6.19982149001045,0.140663400292397,0.423204928636551,-0.210757046937943
8.53247142846519,-0.570882613054748,31.1860409223223,6.19982149001045,0.141353398561478,0.425087451934814,-0.211726516485214
8.53247142846519,-0.570882613054748,31.1860409223223,6.19982149001045,0.142042770981789,0.426966100931168,-0.212694376707077
8.53247142846519,-0.570882613054748,31.1860409223223,6.19982149001045,0.142731502652168,0.42884087562561,-0.213660642504692
8.53247142846519,-0.570882613054748,31.1860409223223,6.19982149001045,0.143419608473778,0.430711776018143,-0.214625328779221
8.53247142846519,-0.570882613054748,31.1860409223223,6.19982149001045,0.144107088446617,0.432578802108765,-0.215588420629501
8.53247142846519,-0.570882613054748,31.1860409223223,6.19982149001045,0.144793942570686,0.434441983699799,-0.216549918055534
8.53247142846519,-0.570882613054748,31.1860409223223,6.19982149001045,0.145480170845985,0.436301290988922,-0.217509835958481
8.53247142846519,-0.570882613054748,31.1860409223223,6.19982149001045,0.146165773272514,0.438156753778458,-0.218468174338341
8.53247142846519,-0.570882613054748,31.1860409223223,6.19982149001045,0.146850749850273,0.440008372068405,-0.219424933195114
8.53247142846519,-0.570882613054748,31.1860409223223,6.19982149001045,0.147535115480423,0.441856145858765,-0.220380112528801
8.53247142846519,-0.570882613054748,31.1860409223223,6.19982149001045,0.148218855261803,0.443700104951859,-0.221333712339401
8.53247142846519,-0.570882613054748,31.1860409223223,6.19982149001045,0.148901969194412,0.445540219545364,-0.222285747528076
8.53247142846519,-0.570882613054748,31.1860409223223,6.19982149001045,0.149584472179413,0.447376519441605,-0.223236203193665
8.53247142846519,-0.570882613054748,31.1860409223223,6.19982149001045,0.150266349315643,0.449209004640579,-0.224185094237328
8.53247142846519,-0.570882613054748,31.1860409223223,6.19982149001045,0.150947615504265,0.451037675142288,-0.225132420659065
8.53247142846519,-0.570882613054748,31.1860409223223,6.19982149001045,0.151628270745277,0.452862530946732,-0.226078182458878
8.53247142846519,-0.570882613054748,31.1860409223223,6.19982149001045,0.152308315038681,0.454683572053909,-0.227022394537926
8.53247142846519,-0.570882613054748,31.1860409223223,6.19982149001045,0.152987748384476,0.456500828266144,-0.227965041995049
8.53247142846519,-0.570882613054748,31.1860409223223,6.19982149001045,0.153666570782661,0.458314299583435,-0.228906139731407
8.53247142846519,-0.570882613054748,31.1860409223223,6.19982149001045,0.154344782233238,0.460123956203461,-0.22984567284584
8.53247142846519,-0.570882613054748,31.1860409223223,6.19982149001045,0.155022382736206,0.461929827928543,-0.23078365623951
8.53247142846519,-0.570882613054748,31.1860409223223,6.19982149001045,0.155699372291565,0.463731944561005,-0.231720089912415
8.53247142846519,-0.570882613054748,31.1860409223223,6.19982149001045,0.156375750899315,0.465530276298523,-0.232654973864555
8.53247142846519,-0.570882613054748,31.1860409223223,6.19982149001045,0.157051533460617,0.467324823141098,-0.233588322997093
8.53247142846519,-0.570882613054748,31.1860409223223,6.19982149001045,0.15772670507431,0.469115614891052,-0.234520122408867
8.53247142846519,-0.570882613054748,31.1860409223223,6.19982149001045,0.158401280641556,0.470902651548386,-0.235450387001038
8.53247142846519,-0.570882613054748,31.1860409223223,6.19982149001045,0.159075245261192,0.472685933113098,-0.236379116773605
8.53247142846519,-0.570882613054748,31.1860409223223,6.19982149001045,0.159748613834381,0.47446545958519,-0.23730631172657
8.53247142846519,-0.570882613054748,31.1860409223223,6.19982149001045,0.160421386361122,0.476241230964661,-0.238231971859932
8.53247142846519,-0.570882613054748,31.1860409223223,6.19982149001045,0.161093562841415,0.478013277053833,-0.239156097173691
8.53247142846519,-0.570882613054748,31.1860409223223,6.19982149001045,0.161765143275261,0.479781568050385,-0.240078687667847
8.53247142846519,-0.570882613054748,31.1860409223223,6.19982149001045,0.162436127662659,0.481546133756638,-0.240999758243561
8.53247142846519,-0.570882613054748,31.1860409223223,6.19982149001045,0.163106516003609,0.483306974172592,-0.241919308900833
8.53247142846519,-0.570882613054748,31.1860409223223,6.19982149001045,0.163776308298111,0.485064089298248,-0.242837339639664
8.53247142846519,-0.570882613054748,31.1860409223223,6.19982149001045,0.164445504546165,0.486817508935928,-0.243753850460052
8.53247142846519,-0.570882613054748,31.1860409223223,6.19982149001045,0.165114119648933,0.48856720328331,-0.244668841362
8.53247142846519,-0.570882613054748,31.1860409223223,6.19982149001045,0.165782138705254,0.490313202142715,-0.245582312345505
8.53247142846519,-0.570882613054748,31.1860409223223,6.19982149001045,0.166449561715126,0.492055505514145,-0.246494278311729
8.53247142846519,-0.570882613054748,31.1860409223223,6.19982149001045,0.167116403579712,0.493794083595276,-0.247404739260674
8.53247142846519,-0.570882613054748,31.1860409223223,6.19982149001045,0.167782664299011,0.495528995990753,-0.248313680291176
8.53247142846519,-0.570882613054748,31.1860409223223,6.19982149001045,0.168448328971863,0.497260212898254,-0.249221116304398
8.53247142846519,-0.570882613054748,31.1860409223223,6.19982149001045,0.169113412499428,0.49898773431778,-0.250127047300339
8.53247142846519,-0.570882613054748,31.1860409223223,6.19982149001045,0.169777914881706,0.500711560249329,-0.251031488180161
8.53247142846519,-0.570882613054748,31.1860409223223,6.19982149001045,0.170441836118698,0.502431750297546,-0.251934438943863
8.53247142846519,-0.570882613054748,31.1860409223223,6.19982149001045,0.171105176210403,0.504148244857788,-0.252835899591446
8.53247142846519,-0.570882613054748,31.1860409223223,6.19982149001045,0.171767935156822,0.505861103534698,-0.253735840320587
8.53247142846519,-0.570882613054748,31.1860409223223,6.19982149001045,0.172430112957954,0.507570266723633,-0.254634290933609
8.53247142846519,-0.570882613054748,31.1860409223223,6.19982149001045,0.173091724514961,0.509275794029236,-0.255531251430511
8.53247142846519,-0.570882613054748,31.1860409223223,6.19982149001045,0.173752754926682,0.510977685451508,-0.256426751613617
8.53247142846519,-0.570882613054748,31.1860409223223,6.19982149001045,0.174413204193115,0.512675940990448,-0.257320761680603
8.53247142846519,-0.570882613054748,31.1860409223223,6.19982149001045,0.175073087215424,0.514370560646057,-0.25821328163147
8.53247142846519,-0.570882613054748,31.1860409223223,6.19982149001045,0.175732389092445,0.516061544418335,-0.259104311466217
8.53247142846519,-0.570882613054748,31.1860409223223,6.19982149001045,0.176391124725342,0.517748892307281,-0.259993880987167
8.53247142846519,-0.570882613054748,31.1860409223223,6.19982149001045,0.177049294114113,0.519432604312897,-0.260881960391998
8.53247142846519,-0.570882613054748,31.1860409223223,6.19982149001045,0.177706882357597,0.521112680435181,-0.261768579483032
8.53247142846519,-0.570882613054748,31.1860409223223,6.19982149001045,0.178363904356956,0.522789180278778,-0.262653708457947
8.53247142846519,-0.570882613054748,31.1860409223223,6.19982149001045,0.17902036011219,0.524462044239044,-0.263537377119064
8.53247142846519,-0.570882613054748,31.1860409223223,6.19982149001045,0.179676249623299,0.526131331920624,-0.264419585466385
8.53247142846519,-0.570882613054748,31.1860409223223,6.19982149001045,0.180331572890282,0.527796983718872,-0.265300333499908
8.53247142846519,-0.570882613054748,31.1860409223223,6.19982149001045,0.180986344814301,0.529459059238434,-0.266179621219635
8.53247142846519,-0.570882613054748,31.1860409223223,6.19982149001045,0.181640550494194,0.531117558479309,-0.267057448625565
8.53247142846519,-0.570882613054748,31.1860409223223,6.19982149001045,0.182294189929962,0.532772481441498,-0.267933815717697
8.53247142846519,-0.570882613054748,31.1860409223223,6.19982149001045,0.182947278022766,0.534423828125,-0.268808722496033
8.53247142846519,-0.570882613054748,31.1860409223223,6.19982149001045,0.183599799871445,0.536071598529816,-0.269682168960571
8.53247142846519,-0.570882613054748,31.1860409223223,6.19982149001045,0.184251770377159,0.537715792655945,-0.270554184913635
8.53247142846519,-0.570882613054748,31.1860409223223,6.19982149001045,0.184903174638748,0.539356410503387,-0.271424740552902
8.53247142846519,-0.570882613054748,31.1860409223223,6.19982149001045,0.185554027557373,0.540993452072144,-0.272293865680695
8.53247142846519,-0.570882613054748,31.1860409223223,6.19982149001045,0.186204329133034,0.542626917362213,-0.27316153049469
8.53247142846519,-0.570882613054748,31.1860409223223,6.19982149001045,0.18685407936573,0.544256865978241,-0.274027764797211
8.53247142846519,-0.570882613054748,31.1860409223223,6.19982149001045,0.187503278255463,0.545883238315582,-0.274892568588257
8.53247142846519,-0.570882613054748,31.1860409223223,6.19982149001045,0.188151925802231,0.547506093978882,-0.275755912065506
8.53247142846519,-0.570882613054748,31.1860409223223,6.19982149001045,0.188800022006035,0.549125373363495,-0.276617825031281
8.53247142846519,-0.570882613054748,31.1860409223223,6.19982149001045,0.189447566866875,0.550741136074066,-0.27747830748558
8.53247142846519,-0.570882613054748,31.1860409223223,6.19982149001045,0.19009456038475,0.552353382110596,-0.278337359428406
8.53247142846519,-0.570882613054748,31.1860409223223,6.19982149001045,0.190741017460823,0.553962111473084,-0.279194980859756
8.53247142846519,-0.570882613054748,31.1860409223223,6.19982149001045,0.191386923193932,0.55556732416153,-0.280051171779633
8.53247142846519,-0.570882613054748,31.1860409223223,6.19982149001045,0.192032277584076,0.557169020175934,-0.280905961990356
8.53247142846519,-0.570882613054748,31.1860409223223,6.19982149001045,0.192677095532417,0.558767199516296,-0.281759321689606
8.53247142846519,-0.570882613054748,31.1860409223223,6.19982149001045,0.193321377038956,0.560361862182617,-0.28261125087738
8.53247142846519,-0.570882613054748,31.1860409223223,6.19982149001045,0.19396510720253,0.561953008174896,-0.283461779356003
8.53247142846519,-0.570882613054748,31.1860409223223,6.19982149001045,0.194608300924301,0.563540697097778,-0.284310877323151
8.53247142846519,-0.570882613054748,31.1860409223223,6.19982149001045,0.195250958204269,0.565124869346619,-0.285158574581146
8.53247142846519,-0.570882613054748,31.1860409223223,6.19982149001045,0.195893079042435,0.566705584526062,-0.28600487112999
8.53247142846519,-0.570882613054748,31.1860409223223,6.19982149001045,0.196534663438797,0.568282783031464,-0.286849766969681
8.53247142846519,-0.570882613054748,31.1860409223223,6.19982149001045,0.197175711393356,0.569856524467468,-0.287693232297897
8.53247142846519,-0.570882613054748,31.1860409223223,6.19982149001045,0.197816222906113,0.571426808834076,-0.288535296916962
8.53247142846519,-0.570882613054748,31.1860409223223,6.19982149001045,0.198456197977066,0.572993636131287,-0.289375960826874
8.53247142846519,-0.570882613054748,31.1860409223223,6.19982149001045,0.199095651507378,0.574556946754456,-0.290215224027634
8.53247142846519,-0.570882613054748,31.1860409223223,6.19982149001045,0.199734568595886,0.576116800308228,-0.291053116321564
8.53247142846519,-0.570882613054748,31.1860409223223,6.19982149001045,0.200372949242592,0.577673256397247,-0.291889607906342
8.53247142846519,-0.570882613054748,31.1860409223223,6.19982149001045,0.201010808348656,0.57922625541687,-0.292724698781967
8.53247142846519,-0.570882613054748,31.1860409223223,6.19982149001045,0.201648145914078,0.580775797367096,-0.293558388948441
8.53247142846519,-0.570882613054748,31.1860409223223,6.19982149001045,0.202284947037697,0.582321882247925,-0.294390708208084
8.53247142846519,-0.570882613054748,31.1860409223223,6.19982149001045,0.202921226620674,0.583864569664001,-0.295221626758575
8.53247142846519,-0.570882613054748,31.1860409223223,6.19982149001045,0.20355698466301,0.585403800010681,-0.296051174402237
8.53247142846519,-0.570882613054748,31.1860409223223,6.19982149001045,0.204192221164703,0.586939632892609,-0.296879351139069
8.53247142846519,-0.570882613054748,31.1860409223223,6.19982149001045,0.204826936125755,0.588472008705139,-0.297706127166748
8.53247142846519,-0.570882613054748,31.1860409223223,6.19982149001045,0.205461129546165,0.590000987052917,-0.298531532287598
8.53247142846519,-0.570882613054748,31.1860409223223,6.19982149001045,0.206094801425934,0.591526567935944,-0.299355566501617
8.53247142846519,-0.570882613054748,31.1860409223223,6.19982149001045,0.20672795176506,0.593048751354218,-0.300178229808807
8.53247142846519,-0.570882613054748,31.1860409223223,6.19982149001045,0.207360580563545,0.594567477703094,-0.300999522209167
8.53247142846519,-0.570882613054748,31.1860409223223,6.19982149001045,0.207992702722549,0.596082806587219,-0.301819443702698
8.53247142846519,-0.570882613054748,31.1860409223223,6.19982149001045,0.208624303340912,0.597594797611237,-0.302637994289398
8.53247142846519,-0.570882613054748,31.1860409223223,6.19982149001045,0.209255397319794,0.599103391170502,-0.303455203771591
8.53247142846519,-0.570882613054748,31.1860409223223,6.19982149001045,0.209885969758034,0.600608587265015,-0.304271042346954
8.53247142846519,-0.570882613054748,31.1860409223223,6.19982149001045,0.210516035556793,0.602110385894775,-0.305085510015488
8.53247142846519,-0.570882613054748,31.1860409223223,6.19982149001045,0.211145594716072,0.603608846664429,-0.305898636579514
8.53247142846519,-0.570882613054748,31.1860409223223,6.19982149001045,0.211774632334709,0.60510390996933,-0.30671039223671
8.53247142846519,-0.570882613054748,31.1860409223223,6.19982149001045,0.212403163313866,0.606595635414124,-0.307520806789398
8.53247142846519,-0.570882613054748,31.1860409223223,6.19982149001045,0.213031187653542,0.608083963394165,-0.308329880237579
8.53247142846519,-0.570882613054748,31.1860409223223,6.19982149001045,0.213658705353737,0.609568953514099,-0.309137612581253
8.53247142846519,-0.570882613054748,31.1860409223223,6.19982149001045,0.214285716414452,0.611050605773926,-0.309943974018097
8.53247142846519,-0.570882613054748,31.1860409223223,6.19982149001045,0.214912235736847,0.612528920173645,-0.310748994350433
8.53247142846519,-0.570882613054748,31.1860409223223,6.19982149001045,0.215538248419762,0.614003896713257,-0.311552673578262
8.53247142846519,-0.570882613054748,31.1860409223223,6.19982149001045,0.216163754463196,0.615475535392761,-0.312355011701584
8.53247142846519,-0.570882613054748,31.1860409223223,6.19982149001045,0.216788753867149,0.616943836212158,-0.313156008720398
8.53247142846519,-0.570882613054748,31.1860409223223,6.19982149001045,0.217413261532784,0.618408799171448,-0.313955694437027
8.53247142846519,-0.570882613054748,31.1860409223223,6.19982149001045,0.218037262558937,0.61987042427063,-0.314754039049149
8.53247142846519,-0.570882613054748,31.1860409223223,6.19982149001045,0.218660771846771,0.621328771114349,-0.315551042556763
8.53247142846519,-0.570882613054748,31.1860409223223,6.19982149001045,0.219283789396286,0.622783780097961,-0.316346734762192
8.53247142846519,-0.570882613054748,31.1860409223223,6.19982149001045,0.21990630030632,0.624235451221466,-0.317141085863113
8.53247142846519,-0.570882613054748,31.1860409223223,6.19982149001045,0.220528319478035,0.625683844089508,-0.31793412566185
8.53247142846519,-0.570882613054748,31.1860409223223,6.19982149001045,0.22114984691143,0.627128958702087,-0.318725854158401
8.53247142846519,-0.570882613054748,31.1860409223223,6.19982149001045,0.221770882606506,0.628570735454559,-0.319516241550446
8.53247142846519,-0.570882613054748,31.1860409223223,6.19982149001045,0.222391426563263,0.630009233951569,-0.320305317640305
8.53247142846519,-0.570882613054748,31.1860409223223,6.19982149001045,0.2230114787817,0.631444454193115,-0.321093082427979
8.53247142846519,-0.570882613054748,31.1860409223223,6.19982149001045,0.223631054162979,0.632876396179199,-0.321879535913467
8.53247142846519,-0.570882613054748,31.1860409223223,6.19982149001045,0.224250137805939,0.634305059909821,-0.322664678096771
8.53247142846519,-0.570882613054748,31.1860409223223,6.19982149001045,0.224868729710579,0.635730445384979,-0.32344850897789
8.53247142846519,-0.570882613054748,31.1860409223223,6.19982149001045,0.225486844778061,0.637152552604675,-0.324231028556824
8.53247142846519,-0.570882613054748,31.1860409223223,6.19982149001045,0.226104468107224,0.638571441173553,-0.325012236833572
8.53247142846519,-0.570882613054748,31.1860409223223,6.19982149001045,0.226721614599228,0.639987051486969,-0.325792163610458
8.53247142846519,-0.570882613054748,31.1860409223223,6.19982149001045,0.227338269352913,0.641399383544922,-0.326570779085159
8.53247142846519,-0.570882613054748,31.1860409223223,6.19982149001045,0.22795444726944,0.642808496952057,-0.327348083257675
8.53247142846519,-0.570882613054748,31.1860409223223,6.19982149001045,0.228570148348808,0.644214332103729,-0.328124105930328
8.53247142846519,-0.570882613054748,31.1860409223223,6.19982149001045,0.229185372591019,0.645616948604584,-0.328898847103119
8.53247142846519,-0.570882613054748,31.1860409223223,6.19982149001045,0.22980010509491,0.64701634645462,-0.329672276973724
8.53247142846519,-0.570882613054748,31.1860409223223,6.19982149001045,0.230414360761642,0.648412466049194,-0.330444425344467
8.53247142846519,-0.570882613054748,31.1860409223223,6.19982149001045,0.231028139591217,0.64980536699295,-0.331215292215347
8.53247142846519,-0.570882613054748,31.1860409223223,6.19982149001045,0.231641456484795,0.651195049285889,-0.331984877586365
8.53247142846519,-0.570882613054748,31.1860409223223,6.19982149001045,0.232254296541214,0.652581512928009,-0.33275318145752
8.53247142846519,-0.570882613054748,31.1860409223223,6.19982149001045,0.232866659760475,0.653964757919312,-0.333520203828812
8.53247142846519,-0.570882613054748,31.1860409223223,6.19982149001045,0.233478546142578,0.655344843864441,-0.334285944700241
8.53247142846519,-0.570882613054748,31.1860409223223,6.19982149001045,0.234089970588684,0.656721711158752,-0.335050404071808
8.53247142846519,-0.570882613054748,31.1860409223223,6.19982149001045,0.234700918197632,0.658095359802246,-0.335813581943512
8.53247142846519,-0.570882613054748,31.1860409223223,6.19982149001045,0.235311403870583,0.659465849399567,-0.336575478315353
8.53247142846519,-0.570882613054748,31.1860409223223,6.19982149001045,0.235921427607536,0.660833120346069,-0.337336122989655
8.53247142846519,-0.570882613054748,31.1860409223223,6.19982149001045,0.236530974507332,0.662197232246399,-0.338095486164093
8.53247142846519,-0.570882613054748,31.1860409223223,6.19982149001045,0.23714005947113,0.663558125495911,-0.338853597640991
8.53247142846519,-0.570882613054748,31.1860409223223,6.19982149001045,0.237748682498932,0.664915859699249,-0.339610427618027
8.53247142846519,-0.570882613054748,31.1860409223223,6.19982149001045,0.238356843590736,0.666270434856415,-0.340366005897522
8.53247142846519,-0.570882613054748,31.1860409223223,6.19982149001045,0.238964542746544,0.667621850967407,-0.341120332479477
8.53247142846519,-0.570882613054748,31.1860409223223,6.19982149001045,0.239571779966354,0.668970048427582,-0.341873407363892
8.53247142846519,-0.570882613054748,31.1860409223223,6.19982149001045,0.240178555250168,0.670315086841583,-0.342625230550766
8.53247142846519,-0.570882613054748,31.1860409223223,6.19982149001045,0.240784868597984,0.671657025814056,-0.343375772237778
8.53247142846519,-0.570882613054748,31.1860409223223,6.19982149001045,0.241390720009804,0.672995805740356,-0.344125062227249
8.53247142846519,-0.570882613054748,31.1860409223223,6.19982149001045,0.241996124386787,0.674331426620483,-0.344873130321503
8.53247142846519,-0.570882613054748,31.1860409223223,6.19982149001045,0.242601066827774,0.675663888454437,-0.345619946718216
8.53247142846519,-0.570882613054748,31.1860409223223,6.19982149001045,0.243205562233925,0.676993250846863,-0.346365511417389
8.53247142846519,-0.570882613054748,31.1860409223223,6.19982149001045,0.243809595704079,0.678319454193115,-0.347109824419022
8.53247142846519,-0.570882613054748,31.1860409223223,6.19982149001045,0.244413182139397,0.679642558097839,-0.347852915525436
8.53247142846519,-0.570882613054748,31.1860409223223,6.19982149001045,0.245016321539879,0.68096250295639,-0.348594754934311
8.53247142846519,-0.570882613054748,31.1860409223223,6.19982149001045,0.245618999004364,0.682279348373413,-0.349335372447968
8.53247142846519,-0.570882613054748,31.1860409223223,6.19982149001045,0.246221229434013,0.683593094348907,-0.350074738264084
8.53247142846519,-0.570882613054748,31.1860409223223,6.19982149001045,0.246823012828827,0.684903740882874,-0.350812882184982
8.53247142846519,-0.570882613054748,31.1860409223223,6.19982149001045,0.247424349188805,0.686211228370667,-0.351549804210663
8.53247142846519,-0.570882613054748,31.1860409223223,6.19982149001045,0.248025238513947,0.687515616416931,-0.352285474538803
8.53247142846519,-0.570882613054748,31.1860409223223,6.19982149001045,0.248625680804253,0.688816905021667,-0.353019922971725
8.53247142846519,-0.570882613054748,31.1860409223223,6.19982149001045,0.249225690960884,0.69011515378952,-0.35375314950943
8.53247142846519,-0.570882613054748,31.1860409223223,6.19982149001045,0.24982525408268,0.691410303115845,-0.354485154151917
8.53247142846519,-0.570882613054748,31.1860409223223,6.19982149001045,0.250424385070801,0.692702353000641,-0.355215936899185
8.53247142846519,-0.570882613054748,31.1860409223223,6.19982149001045,0.251023054122925,0.693991303443909,-0.355945497751236
8.53247142846519,-0.570882613054748,31.1860409223223,6.19982149001045,0.251621305942535,0.695277214050293,-0.356673866510391
8.53247142846519,-0.570882613054748,31.1860409223223,6.19982149001045,0.25221911072731,0.696560025215149,-0.357401013374329
8.53247142846519,-0.570882613054748,31.1860409223223,6.19982149001045,0.252816468477249,0.697839796543121,-0.358126938343048
8.53247142846519,-0.570882613054748,31.1860409223223,6.19982149001045,0.253413379192352,0.69911652803421,-0.358851671218872
8.53247142846519,-0.570882613054748,31.1860409223223,6.19982149001045,0.254009872674942,0.700390160083771,-0.359575182199478
8.53247142846519,-0.570882613054748,31.1860409223223,6.19982149001045,0.254605919122696,0.701660752296448,-0.360297501087189
8.53247142846519,-0.570882613054748,31.1860409223223,6.19982149001045,0.255201548337936,0.702928304672241,-0.361018598079681
8.53247142846519,-0.570882613054748,31.1860409223223,6.19982149001045,0.255796730518341,0.704192817211151,-0.361738502979279
8.53247142846519,-0.570882613054748,31.1860409223223,6.19982149001045,0.256391495466232,0.705454289913177,-0.36245721578598
8.53247142846519,-0.570882613054748,31.1860409223223,6.19982149001045,0.256985813379288,0.70671272277832,-0.363174736499786
8.53247142846519,-0.570882613054748,31.1860409223223,6.19982149001045,0.25757971405983,0.70796811580658,-0.363891065120697
8.53247142846519,-0.570882613054748,31.1860409223223,6.19982149001045,0.258173167705536,0.7092205286026,-0.364606201648712
8.53247142846519,-0.570882613054748,31.1860409223223,6.19982149001045,0.258766204118729,0.710469901561737,-0.365320146083832
8.53247142846519,-0.570882613054748,31.1860409223223,6.19982149001045,0.259358823299408,0.71171623468399,-0.366032898426056
8.53247142846519,-0.570882613054748,31.1860409223223,6.19982149001045,0.259951025247574,0.712959587574005,-0.366744458675385
8.53247142846519,-0.570882613054748,31.1860409223223,6.19982149001045,0.260542780160904,0.714199900627136,-0.367454826831818
8.53247142846519,-0.570882613054748,31.1860409223223,6.19982149001045,0.261134117841721,0.715437233448029,-0.368164032697678
8.53247142846519,-0.570882613054748,31.1860409223223,6.19982149001045,0.261725038290024,0.716671586036682,-0.368872046470642
8.53247142846519,-0.570882613054748,31.1860409223223,6.19982149001045,0.262315541505814,0.717902898788452,-0.369578897953033
8.53247142846519,-0.570882613054748,31.1860409223223,6.19982149001045,0.26290562748909,0.719131231307983,-0.370284557342529
8.53247142846519,-0.570882613054748,31.1860409223223,6.19982149001045,0.263495296239853,0.720356583595276,-0.370989054441452
8.53247142846519,-0.570882613054748,31.1860409223223,6.19982149001045,0.264084547758102,0.72157895565033,-0.371692359447479
8.53247142846519,-0.570882613054748,31.1860409223223,6.19982149001045,0.264673382043839,0.722798347473145,-0.372394502162933
8.53247142846519,-0.570882613054748,31.1860409223223,6.19982149001045,0.265261799097061,0.724014759063721,-0.373095482587814
8.53247142846519,-0.570882613054748,31.1860409223223,6.19982149001045,0.26584979891777,0.725228190422058,-0.373795300722122
8.53247142846519,-0.570882613054748,31.1860409223223,6.19982149001045,0.266437381505966,0.726438701152802,-0.374493956565857
8.53247142846519,-0.570882613054748,31.1860409223223,6.19982149001045,0.267024546861649,0.727646231651306,-0.375191450119019
8.53247142846519,-0.570882613054748,31.1860409223223,6.19982149001045,0.267611294984818,0.728850781917572,-0.375887781381607
8.53247142846519,-0.570882613054748,31.1860409223223,6.19982149001045,0.268197625875473,0.730052411556244,-0.376582950353622
8.53247142846519,-0.570882613054748,31.1860409223223,6.19982149001045,0.268783569335938,0.731251120567322,-0.377276957035065
8.53247142846519,-0.570882613054748,31.1860409223223,6.19982149001045,0.269369095563889,0.732446849346161,-0.377969831228256
8.53247142846519,-0.570882613054748,31.1860409223223,6.19982149001045,0.269954204559326,0.733639657497406,-0.378661543130875
8.53247142846519,-0.570882613054748,31.1860409223223,6.19982149001045,0.270538926124573,0.734829545021057,-0.37935209274292
8.53247142846519,-0.570882613054748,31.1860409223223,6.19982149001045,0.271123230457306,0.736016511917114,-0.380041509866714
8.53247142846519,-0.570882613054748,31.1860409223223,6.19982149001045,0.271707117557526,0.737200498580933,-0.380729764699936
8.53247142846519,-0.570882613054748,31.1860409223223,6.19982149001045,0.272290617227554,0.738381564617157,-0.381416887044907
8.53247142846519,-0.570882613054748,31.1860409223223,6.19982149001045,0.27287369966507,0.739559769630432,-0.382102876901627
8.53247142846519,-0.570882613054748,31.1860409223223,6.19982149001045,0.273456394672394,0.740735054016113,-0.382787734270096
8.53247142846519,-0.570882613054748,31.1860409223223,6.19982149001045,0.274038672447205,0.7419074177742,-0.383471429347992
8.53247142846519,-0.570882613054748,31.1860409223223,6.19982149001045,0.274620562791824,0.743076860904694,-0.384153991937637
8.53247142846519,-0.570882613054748,31.1860409223223,6.19982149001045,0.275202065706253,0.744243443012238,-0.384835422039032
8.53247142846519,-0.570882613054748,31.1860409223223,6.19982149001045,0.275783151388168,0.745407104492188,-0.385515719652176
8.53247142846519,-0.570882613054748,31.1860409223223,6.19982149001045,0.276363849639893,0.746567904949188,-0.386194884777069
8.53247142846519,-0.570882613054748,31.1860409223223,6.19982149001045,0.276944160461426,0.747725784778595,-0.386872947216034
8.53247142846519,-0.570882613054748,31.1860409223223,6.19982149001045,0.277524054050446,0.748880803585052,-0.387549877166748
8.53247142846519,-0.570882613054748,31.1860409223223,6.19982149001045,0.278103560209274,0.750032961368561,-0.388225674629211
8.53247142846519,-0.570882613054748,31.1860409223223,6.19982149001045,0.278682678937912,0.751182198524475,-0.388900369405746
8.53247142846519,-0.570882613054748,31.1860409223223,6.19982149001045,0.279261410236359,0.75232857465744,-0.389573931694031
8.53247142846519,-0.570882613054748,31.1860409223223,6.19982149001045,0.279839754104614,0.753472089767456,-0.390246391296387
8.53247142846519,-0.570882613054748,31.1860409223223,6.19982149001045,0.280417710542679,0.754612743854523,-0.390917718410492
8.53247142846519,-0.570882613054748,31.1860409223223,6.19982149001045,0.280995279550552,0.75575053691864,-0.391587942838669
8.53247142846519,-0.570882613054748,31.1860409223223,6.19982149001045,0.281572461128235,0.756885468959808,-0.392257034778595
8.53247142846519,-0.570882613054748,31.1860409223223,6.19982149001045,0.282149255275726,0.758017599582672,-0.392925024032593
8.53247142846519,-0.570882613054748,31.1860409223223,6.19982149001045,0.282725661993027,0.759146869182587,-0.393591910600662
8.53247142846519,-0.570882613054748,31.1860409223223,6.19982149001045,0.283301681280136,0.760273277759552,-0.394257694482803
8.53247142846519,-0.570882613054748,31.1860409223223,6.19982149001045,0.283877313137054,0.761396884918213,-0.394922375679016
8.53247142846519,-0.570882613054748,31.1860409223223,6.19982149001045,0.284452557563782,0.762517631053925,-0.395585954189301
8.53247142846519,-0.570882613054748,31.1860409223223,6.19982149001045,0.285027414560318,0.763635575771332,-0.396248430013657
8.53247142846519,-0.570882613054748,31.1860409223223,6.19982149001045,0.285601913928986,0.764750719070435,-0.396909803152084
8.53247142846519,-0.570882613054748,31.1860409223223,6.19982149001045,0.286176025867462,0.765863001346588,-0.397570103406906
8.53247142846519,-0.570882613054748,31.1860409223223,6.19982149001045,0.286749750375748,0.766972482204437,-0.3982293009758
8.53247142846519,-0.570882613054748,31.1860409223223,6.19982149001045,0.287323117256165,0.768079161643982,-0.398887395858765
8.53247142846519,-0.570882613054748,31.1860409223223,6.19982149001045,0.28789609670639,0.769183039665222,-0.399544417858124
8.53247142846519,-0.570882613054748,31.1860409223223,6.19982149001045,0.288468688726425,0.770284116268158,-0.400200337171555
8.53247142846519,-0.570882613054748,31.1860409223223,6.19982149001045,0.289040923118591,0.771382391452789,-0.400855183601379
8.53247142846519,-0.570882613054748,31.1860409223223,6.19982149001045,0.289612770080566,0.772477865219116,-0.401508957147598
8.53247142846519,-0.570882613054748,31.1860409223223,6.19982149001045,0.290184259414673,0.773570537567139,-0.402161628007889
8.53247142846519,-0.570882613054748,31.1860409223223,6.19982149001045,0.290755361318588,0.774660468101501,-0.402813225984573
8.53247142846519,-0.570882613054748,31.1860409223223,6.19982149001045,0.291326105594635,0.77574759721756,-0.403463751077652
8.53247142846519,-0.570882613054748,31.1860409223223,6.19982149001045,0.291896462440491,0.776831984519959,-0.404113203287125
8.53247142846519,-0.570882613054748,31.1860409223223,6.19982149001045,0.292466461658478,0.777913570404053,-0.404761582612991
8.53247142846519,-0.570882613054748,31.1860409223223,6.19982149001045,0.293036103248596,0.778992414474487,-0.405408889055252
8.53247142846519,-0.570882613054748,31.1860409223223,6.19982149001045,0.293605357408524,0.780068457126617,-0.406055122613907
8.53247142846519,-0.570882613054748,31.1860409223223,6.19982149001045,0.294174253940582,0.781141757965088,-0.406700283288956
8.53247142846519,-0.570882613054748,31.1860409223223,6.19982149001045,0.294742792844772,0.782212316989899,-0.407344400882721
8.53247142846519,-0.570882613054748,31.1860409223223,6.19982149001045,0.295310974121094,0.78328013420105,-0.40798744559288
8.53247142846519,-0.570882613054748,31.1860409223223,6.19982149001045,0.295878797769547,0.784345209598541,-0.408629417419434
8.53247142846519,-0.570882613054748,31.1860409223223,6.19982149001045,0.296446233987808,0.785407543182373,-0.409270346164703
8.53247142846519,-0.570882613054748,31.1860409223223,6.19982149001045,0.297013312578201,0.786467134952545,-0.409910202026367
8.53247142846519,-0.570882613054748,31.1860409223223,6.19982149001045,0.297580033540726,0.787523984909058,-0.410549014806747
8.53247142846519,-0.570882613054748,31.1860409223223,6.19982149001045,0.298146396875381,0.78857809305191,-0.411186754703522
8.53247142846519,-0.570882613054748,31.1860409223223,6.19982149001045,0.298712402582169,0.789629459381104,-0.411823451519012
8.53247142846519,-0.570882613054748,31.1860409223223,6.19982149001045,0.299278050661087,0.790678143501282,-0.41245910525322
8.53247142846519,-0.570882613054748,31.1860409223223,6.19982149001045,0.299843341112137,0.7917240858078,-0.413093715906143
8.53247142846519,-0.570882613054748,31.1860409223223,6.19982149001045,0.300408273935318,0.792767345905304,-0.413727283477783
8.53247142846519,-0.570882613054748,31.1860409223223,6.19982149001045,0.30097284913063,0.793807864189148,-0.41435980796814
8.53247142846519,-0.570882613054748,31.1860409223223,6.19982149001045,0.301537096500397,0.794845700263977,-0.414991289377213
8.53247142846519,-0.570882613054748,31.1860409223223,6.19982149001045,0.302100986242294,0.795880854129791,-0.415621727705002
8.53247142846519,-0.570882613054748,31.1860409223223,6.19982149001045,0.302664518356323,0.796913325786591,-0.416251122951508
8.53247142846519,-0.570882613054748,31.1860409223223,6.19982149001045,0.303227692842484,0.79794305562973,-0.41687947511673
8.53247142846519,-0.570882613054748,31.1860409223223,6.19982149001045,0.303790539503098,0.798970103263855,-0.417506814002991
8.53247142846519,-0.570882613054748,31.1860409223223,6.19982149001045,0.304353028535843,0.799994468688965,-0.418133109807968
8.53247142846519,-0.570882613054748,31.1860409223223,6.19982149001045,0.30491515994072,0.80101615190506,-0.418758362531662
8.53247142846519,-0.570882613054748,31.1860409223223,6.19982149001045,0.30547696352005,0.802035212516785,-0.419382601976395
8.53247142846519,-0.570882613054748,31.1860409223223,6.19982149001045,0.306038409471512,0.803051590919495,-0.420005798339844
8.53247142846519,-0.570882613054748,31.1860409223223,6.19982149001045,0.306599527597427,0.80406528711319,-0.420627981424332
8.53247142846519,-0.570882613054748,31.1860409223223,6.19982149001045,0.307160288095474,0.80507630109787,-0.421249151229858
8.53247142846519,-0.570882613054748,31.1860409223223,6.19982149001045,0.307720720767975,0.80608469247818,-0.421869277954102
8.53247142846519,-0.570882613054748,31.1860409223223,6.19982149001045,0.308280795812607,0.807090401649475,-0.422488391399384
8.53247142846519,-0.570882613054748,31.1860409223223,6.19982149001045,0.308840543031693,0.8080934882164,-0.423106491565704
8.53247142846519,-0.570882613054748,31.1860409223223,6.19982149001045,0.30939993262291,0.80909389257431,-0.423723578453064
8.53247142846519,-0.570882613054748,31.1860409223223,6.19982149001045,0.30995899438858,0.81009167432785,-0.424339652061462
8.53247142846519,-0.570882613054748,31.1860409223223,6.19982149001045,0.310517728328705,0.81108683347702,-0.4249547123909
8.53247142846519,-0.570882613054748,31.1860409223223,6.19982149001045,0.311076104640961,0.81207937002182,-0.425568759441376
8.53247142846519,-0.570882613054748,31.1860409223223,6.19982149001045,0.31163415312767,0.81306928396225,-0.426181823015213
8.53247142846519,-0.570882613054748,31.1860409223223,6.19982149001045,0.312191873788834,0.814056575298309,-0.426793873310089
8.53247142846519,-0.570882613054748,31.1860409223223,6.19982149001045,0.312749266624451,0.815041244029999,-0.427404910326004
8.53247142846519,-0.570882613054748,31.1860409223223,6.19982149001045,0.313306331634521,0.816023290157318,-0.42801496386528
8.53247142846519,-0.570882613054748,31.1860409223223,6.19982149001045,0.313863039016724,0.817002713680267,-0.428624004125595
8.53247142846519,-0.570882613054748,31.1860409223223,6.19982149001045,0.31441941857338,0.817979514598846,-0.429232060909271
8.53247142846519,-0.570882613054748,31.1860409223223,6.19982149001045,0.314975470304489,0.8189537525177,-0.429839104413986
8.53247142846519,-0.570882613054748,31.1860409223223,6.19982149001045,0.315531194210052,0.819925367832184,-0.430445164442062
8.53247142846519,-0.570882613054748,31.1860409223223,6.19982149001045,0.31608659029007,0.820894360542297,-0.4310502409935
8.53247142846519,-0.570882613054748,31.1860409223223,6.19982149001045,0.31664165854454,0.821860790252686,-0.431654304265976
8.53247142846519,-0.570882613054748,31.1860409223223,6.19982149001045,0.317196398973465,0.822824597358704,-0.432257384061813
8.53247142846519,-0.570882613054748,31.1860409223223,6.19982149001045,0.317750811576843,0.823785841464996,-0.432859480381012
8.53247142846519,-0.570882613054748,31.1860409223223,6.19982149001045,0.318304926156998,0.824744522571564,-0.433460593223572
8.53247142846519,-0.570882613054748,31.1860409223223,6.19982149001045,0.318858712911606,0.825700640678406,-0.434060722589493
8.53247142846519,-0.570882613054748,31.1860409223223,6.19982149001045,0.319412171840668,0.826654195785522,-0.434659868478775
8.53247142846519,-0.570882613054748,31.1860409223223,6.19982149001045,0.319965302944183,0.827605128288269,-0.435258030891418
8.53247142846519,-0.570882613054748,31.1860409223223,6.19982149001045,0.320518106222153,0.82855349779129,-0.435855239629745
8.53247142846519,-0.570882613054748,31.1860409223223,6.19982149001045,0.321070611476898,0.829499363899231,-0.436451464891434
8.53247142846519,-0.570882613054748,31.1860409223223,6.19982149001045,0.321622788906097,0.830442667007446,-0.437046706676483
8.53247142846519,-0.570882613054748,31.1860409223223,6.19982149001045,0.32217463850975,0.831383407115936,-0.437640994787216
8.53247142846519,-0.570882613054748,31.1860409223223,6.19982149001045,0.322726190090179,0.832321584224701,-0.43823429942131
8.53247142846519,-0.570882613054748,31.1860409223223,6.19982149001045,0.323277413845062,0.83325719833374,-0.438826650381088
8.53247142846519,-0.570882613054748,31.1860409223223,6.19982149001045,0.323828339576721,0.834190309047699,-0.439418017864227
8.53247142846519,-0.570882613054748,31.1860409223223,6.19982149001045,0.324378937482834,0.835120856761932,-0.44000843167305
8.53247142846519,-0.570882613054748,31.1860409223223,6.19982149001045,0.324929237365723,0.836048901081085,-0.440597891807556
8.53247142846519,-0.570882613054748,31.1860409223223,6.19982149001045,0.325479209423065,0.836974442005157,-0.441186398267746
8.53247142846519,-0.570882613054748,31.1860409223223,6.19982149001045,0.326028883457184,0.837897419929504,-0.441773951053619
8.53247142846519,-0.570882613054748,31.1860409223223,6.19982149001045,0.326578229665756,0.838817894458771,-0.442360520362854
8.53247142846519,-0.570882613054748,31.1860409223223,6.19982149001045,0.327127277851105,0.839735865592957,-0.442946135997772
8.53247142846519,-0.570882613054748,31.1860409223223,6.19982149001045,0.327676028013229,0.840651333332062,-0.443530827760696
8.53247142846519,-0.570882613054748,31.1860409223223,6.19982149001045,0.328224450349808,0.841564297676086,-0.444114565849304
8.53247142846519,-0.570882613054748,31.1860409223223,6.19982149001045,0.328772574663162,0.842474758625031,-0.444697350263596
8.53247142846519,-0.570882613054748,31.1860409223223,6.19982149001045,0.329320400953293,0.843382716178894,-0.445279181003571
8.53247142846519,-0.570882613054748,31.1860409223223,6.19982149001045,0.3298679292202,0.844288170337677,-0.445860058069229
8.53247142846519,-0.570882613054748,31.1860409223223,6.19982149001045,0.330415159463882,0.845191121101379,-0.446440011262894
8.53247142846519,-0.570882613054748,31.1860409223223,6.19982149001045,0.330962061882019,0.846091568470001,-0.447019010782242
8.53247142846519,-0.570882613054748,31.1860409223223,6.19982149001045,0.331508666276932,0.846989572048187,-0.447597086429596
8.53247142846519,-0.570882613054748,31.1860409223223,6.19982149001045,0.332054972648621,0.847885072231293,-0.448174208402634
8.53247142846519,-0.570882613054748,31.1860409223223,6.19982149001045,0.332600980997086,0.848778128623962,-0.448750406503677
8.53247142846519,-0.570882613054748,31.1860409223223,6.19982149001045,0.333146691322327,0.849668681621552,-0.449325680732727
8.53247142846519,-0.570882613054748,31.1860409223223,6.19982149001045,0.333692103624344,0.850556790828705,-0.44990000128746
8.53247142846519,-0.570882613054748,31.1860409223223,6.19982149001045,0.334237217903137,0.851442456245422,-0.4504733979702
8.53247142846519,-0.570882613054748,31.1860409223223,6.19982149001045,0.334782034158707,0.852325618267059,-0.451045870780945
8.53247142846519,-0.570882613054748,31.1860409223223,6.19982149001045,0.335326552391052,0.853206336498261,-0.451617419719696
8.53247142846519,-0.570882613054748,31.1860409223223,6.19982149001045,0.335870802402496,0.854084610939026,-0.452188044786453
8.53247142846519,-0.570882613054748,31.1860409223223,6.19982149001045,0.336414754390717,0.854960441589355,-0.452757745981216
8.53247142846519,-0.570882613054748,31.1860409223223,6.19982149001045,0.336958408355713,0.855833828449249,-0.453326523303986
8.53247142846519,-0.570882613054748,31.1860409223223,6.19982149001045,0.337501764297485,0.856704771518707,-0.453894376754761
8.53247142846519,-0.570882613054748,31.1860409223223,6.19982149001045,0.338044822216034,0.857573270797729,-0.454461336135864
8.53247142846519,-0.570882613054748,31.1860409223223,6.19982149001045,0.338587611913681,0.858439385890961,-0.455027371644974
8.53247142846519,-0.570882613054748,31.1860409223223,6.19982149001045,0.339130103588104,0.859303057193756,-0.455592483282089
8.53247142846519,-0.570882613054748,31.1860409223223,6.19982149001045,0.339672297239304,0.860164284706116,-0.456156700849533
8.53247142846519,-0.570882613054748,31.1860409223223,6.19982149001045,0.340214222669601,0.861023128032684,-0.456719994544983
8.53247142846519,-0.570882613054748,31.1860409223223,6.19982149001045,0.340755850076675,0.861879527568817,-0.457282394170761
8.53247142846519,-0.570882613054748,31.1860409223223,6.19982149001045,0.341297209262848,0.862733542919159,-0.457843869924545
8.53247142846519,-0.570882613054748,31.1860409223223,6.19982149001045,0.341838270425797,0.863585114479065,-0.458404451608658
8.53247142846519,-0.570882613054748,31.1860409223223,6.19982149001045,0.342379063367844,0.86443430185318,-0.458964139223099
8.53247142846519,-0.570882613054748,31.1860409223223,6.19982149001045,0.342919558286667,0.865281105041504,-0.459522932767868
8.53247142846519,-0.570882613054748,31.1860409223223,6.19982149001045,0.343459784984589,0.866125524044037,-0.460080802440643
8.53247142846519,-0.570882613054748,31.1860409223223,6.19982149001045,0.343999713659287,0.866967558860779,-0.460637778043747
8.53247142846519,-0.570882613054748,31.1860409223223,6.19982149001045,0.344539374113083,0.86780720949173,-0.461193859577179
8.53247142846519,-0.570882613054748,31.1860409223223,6.19982149001045,0.345078766345978,0.86864447593689,-0.461749047040939
8.53247142846519,-0.570882613054748,31.1860409223223,6.19982149001045,0.345617860555649,0.869479358196259,-0.462303340435028
8.53247142846519,-0.570882613054748,31.1860409223223,6.19982149001045,0.346156686544418,0.870311856269836,-0.462856769561768
8.53247142846519,-0.570882613054748,31.1860409223223,6.19982149001045,0.346695244312286,0.871141970157623,-0.463409304618835
8.53247142846519,-0.570882613054748,31.1860409223223,6.19982149001045,0.347233533859253,0.871969759464264,-0.463960945606232
8.53247142846519,-0.570882613054748,31.1860409223223,6.19982149001045,0.347771525382996,0.872795164585114,-0.464511722326279
8.53247142846519,-0.570882613054748,31.1860409223223,6.19982149001045,0.348309248685837,0.873618185520172,-0.465061604976654
8.53247142846519,-0.570882613054748,31.1860409223223,6.19982149001045,0.348846703767776,0.874438881874084,-0.465610593557358
8.53247142846519,-0.570882613054748,31.1860409223223,6.19982149001045,0.349383890628815,0.875257194042206,-0.466158717870712
8.53247142846519,-0.570882613054748,31.1860409223223,6.19982149001045,0.349920809268951,0.876073181629181,-0.466705977916718
8.53247142846519,-0.570882613054748,31.1860409223223,6.19982149001045,0.350457459688187,0.87688684463501,-0.467252343893051
8.53247142846519,-0.570882613054748,31.1860409223223,6.19982149001045,0.35099384188652,0.877698123455048,-0.467797845602036
8.53247142846519,-0.570882613054748,31.1860409223223,6.19982149001045,0.351529955863953,0.878507077693939,-0.468342483043671
8.53247142846519,-0.570882613054748,31.1860409223223,6.19982149001045,0.352065801620483,0.879313707351685,-0.468886256217957
8.53247142846519,-0.570882613054748,31.1860409223223,6.19982149001045,0.352601379156113,0.880118012428284,-0.469429135322571
8.53247142846519,-0.570882613054748,31.1860409223223,6.19982149001045,0.35313668847084,0.880919992923737,-0.469971150159836
8.53247142846519,-0.570882613054748,31.1860409223223,6.19982149001045,0.353671759366989,0.881719648838043,-0.470512300729752
8.53247142846519,-0.570882613054748,31.1860409223223,6.19982149001045,0.354206562042236,0.882516980171204,-0.471052616834641
8.53247142846519,-0.570882613054748,31.1860409223223,6.19982149001045,0.354741096496582,0.883312046527863,-0.47159206867218
8.53247142846519,-0.570882613054748,31.1860409223223,6.19982149001045,0.355275362730026,0.884104788303375,-0.472130656242371
8.53247142846519,-0.570882613054748,31.1860409223223,6.19982149001045,0.355809360742569,0.884895205497742,-0.472668379545212
8.53247142846519,-0.570882613054748,31.1860409223223,6.19982149001045,0.356343120336533,0.885683357715607,-0.473205238580704
8.53247142846519,-0.570882613054748,31.1860409223223,6.19982149001045,0.356876611709595,0.886469185352325,-0.473741263151169
8.53247142846519,-0.570882613054748,31.1860409223223,6.19982149001045,0.357409834861755,0.887252748012543,-0.474276423454285
8.53247142846519,-0.570882613054748,31.1860409223223,6.19982149001045,0.357942819595337,0.888033986091614,-0.474810749292374
8.53247142846519,-0.570882613054748,31.1860409223223,6.19982149001045,0.358475536108017,0.888812959194183,-0.475344210863113
8.53247142846519,-0.570882613054748,31.1860409223223,6.19982149001045,0.359008014202118,0.889589667320251,-0.475876837968826
8.53247142846519,-0.570882613054748,31.1860409223223,6.19982149001045,0.359540224075317,0.890364110469818,-0.476408630609512
8.53247142846519,-0.570882613054748,31.1860409223223,6.19982149001045,0.360072195529938,0.891136229038239,-0.476939558982849
8.53247142846519,-0.570882613054748,31.1860409223223,6.19982149001045,0.360603898763657,0.891906082630157,-0.477469652891159
8.53247142846519,-0.570882613054748,31.1860409223223,6.19982149001045,0.361135363578796,0.892673671245575,-0.477998912334442
8.53247142846519,-0.570882613054748,31.1860409223223,6.19982149001045,0.361666560173035,0.893438994884491,-0.478527337312698
8.53247142846519,-0.570882613054748,31.1860409223223,6.19982149001045,0.362197518348694,0.89420211315155,-0.479054927825928
8.53247142846519,-0.570882613054748,31.1860409223223,6.19982149001045,0.362728238105774,0.894962966442108,-0.47958168387413
8.53247142846519,-0.570882613054748,31.1860409223223,6.19982149001045,0.363258689641953,0.895721554756165,-0.480107605457306
8.53247142846519,-0.570882613054748,31.1860409223223,6.19982149001045,0.363788902759552,0.896477878093719,-0.480632692575455
8.53247142846519,-0.570882613054748,31.1860409223223,6.19982149001045,0.364318877458572,0.897231996059418,-0.481156975030899
8.53247142846519,-0.570882613054748,31.1860409223223,6.19982149001045,0.364848613739014,0.897983849048615,-0.481680423021317
8.53247142846519,-0.570882613054748,31.1860409223223,6.19982149001045,0.365378111600876,0.898733496665955,-0.482203036546707
8.53247142846519,-0.570882613054748,31.1860409223223,6.19982149001045,0.365907341241837,0.899480879306793,-0.482724845409393
8.53247142846519,-0.570882613054748,31.1860409223223,6.19982149001045,0.366436332464218,0.900226056575775,-0.483245819807053
8.53247142846519,-0.570882613054748,31.1860409223223,6.19982149001045,0.366965085268021,0.9009690284729,-0.483765989542007
8.53247142846519,-0.570882613054748,31.1860409223223,6.19982149001045,0.367493599653244,0.901709735393524,-0.484285324811935
8.53247142846519,-0.570882613054748,31.1860409223223,6.19982149001045,0.368021875619888,0.902448236942291,-0.484803855419159
8.53247142846519,-0.570882613054748,31.1860409223223,6.19982149001045,0.368549913167953,0.903184533119202,-0.485321551561356
8.53247142846519,-0.570882613054748,31.1860409223223,6.19982149001045,0.36907771229744,0.903918623924255,-0.485838443040848
8.53247142846519,-0.570882613054748,31.1860409223223,6.19982149001045,0.369605273008347,0.904650509357452,-0.486354529857636
8.53247142846519,-0.570882613054748,31.1860409223223,6.19982149001045,0.370132595300674,0.905380189418793,-0.486869812011719
8.53247142846519,-0.570882613054748,31.1860409223223,6.19982149001045,0.370659679174423,0.906107664108276,-0.487384289503098
8.53247142846519,-0.570882613054748,31.1860409223223,6.19982149001045,0.371186524629593,0.906832993030548,-0.487897962331772
8.53247142846519,-0.570882613054748,31.1860409223223,6.19982149001045,0.371713161468506,0.907556116580963,-0.488410830497742
8.53247142846519,-0.570882613054748,31.1860409223223,6.19982149001045,0.37223955988884,0.908277034759521,-0.488922894001007
8.53247142846519,-0.570882613054748,31.1860409223223,6.19982149001045,0.372765719890594,0.908995807170868,-0.489434152841568
8.53247142846519,-0.570882613054748,31.1860409223223,6.19982149001045,0.37329164147377,0.909712374210358,-0.489944607019424
8.53247142846519,-0.570882613054748,31.1860409223223,6.19982149001045,0.373817354440689,0.910426795482636,-0.490454286336899
8.53247142846519,-0.570882613054748,31.1860409223223,6.19982149001045,0.374342828989029,0.911139011383057,-0.490963160991669
8.53247142846519,-0.570882613054748,31.1860409223223,6.19982149001045,0.37486806511879,0.911849081516266,-0.491471230983734
8.53247142846519,-0.570882613054748,31.1860409223223,6.19982149001045,0.375393092632294,0.912557005882263,-0.491978526115417
8.53247142846519,-0.570882613054748,31.1860409223223,6.19982149001045,0.375917881727219,0.913262724876404,-0.492485016584396
8.53247142846519,-0.570882613054748,31.1860409223223,6.19982149001045,0.376442432403564,0.913966298103333,-0.492990732192993
8.53247142846519,-0.570882613054748,31.1860409223223,6.19982149001045,0.376966774463654,0.914667725563049,-0.493495672941208
8.53247142846519,-0.570882613054748,31.1860409223223,6.19982149001045,0.377490878105164,0.915367007255554,-0.493999809026718
8.53247142846519,-0.570882613054748,31.1860409223223,6.19982149001045,0.378014773130417,0.916064143180847,-0.494503170251846
8.53247142846519,-0.570882613054748,31.1860409223223,6.19982149001045,0.378538459539413,0.916759133338928,-0.495005756616592
8.53247142846519,-0.570882613054748,31.1860409223223,6.19982149001045,0.379061907529831,0.917452037334442,-0.495507568120956
8.53247142846519,-0.570882613054748,31.1860409223223,6.19982149001045,0.379585146903992,0.918142795562744,-0.496008604764938
8.53247142846519,-0.570882613054748,31.1860409223223,6.19982149001045,0.380108147859573,0.918831408023834,-0.496508866548538
8.53247142846519,-0.570882613054748,31.1860409223223,6.19982149001045,0.380630940198898,0.919517874717712,-0.497008353471756
8.53247142846519,-0.570882613054748,31.1860409223223,6.19982149001045,0.381153523921967,0.920202255249023,-0.497507065534592
8.53247142846519,-0.570882613054748,31.1860409223223,6.19982149001045,0.381675869226456,0.920884490013123,-0.498005002737045
8.53247142846519,-0.570882613054748,31.1860409223223,6.19982149001045,0.382198005914688,0.921564638614655,-0.498502165079117
8.53247142846519,-0.570882613054748,31.1860409223223,6.19982149001045,0.382719933986664,0.922242701053619,-0.498998552560806
8.53247142846519,-0.570882613054748,31.1860409223223,6.19982149001045,0.383241653442383,0.922918617725372,-0.499494194984436
8.53247142846519,-0.570882613054748,31.1860409223223,6.19982149001045,0.383763164281845,0.923592448234558,-0.499989062547684
8.53247142846519,-0.570882613054748,31.1860409223223,6.19982149001045,0.384284436702728,0.924264192581177,-0.500483155250549
8.53247142846519,-0.570882613054748,31.1860409223223,6.19982149001045,0.384805500507355,0.924933850765228,-0.500976502895355
8.53247142846519,-0.570882613054748,31.1860409223223,6.19982149001045,0.385326355695724,0.925601422786713,-0.501469075679779
8.53247142846519,-0.570882613054748,31.1860409223223,6.19982149001045,0.385847002267838,0.92626690864563,-0.501960933208466
8.53247142846519,-0.570882613054748,31.1860409223223,6.19982149001045,0.386367440223694,0.92693030834198,-0.50245201587677
8.53247142846519,-0.570882613054748,31.1860409223223,6.19982149001045,0.386887669563293,0.927591621875763,-0.502942323684692
8.53247142846519,-0.570882613054748,31.1860409223223,6.19982149001045,0.387407690286636,0.928250849246979,-0.503431916236877
8.53247142846519,-0.570882613054748,31.1860409223223,6.19982149001045,0.387927502393723,0.928907990455627,-0.50392073392868
8.53247142846519,-0.570882613054748,31.1860409223223,6.19982149001045,0.388447105884552,0.929563105106354,-0.504408836364746
8.53247142846519,-0.570882613054748,31.1860409223223,6.19982149001045,0.388966530561447,0.930216133594513,-0.50489616394043
8.53247142846519,-0.570882613054748,31.1860409223223,6.19982149001045,0.389485746622086,0.930867075920105,-0.505382776260376
8.53247142846519,-0.570882613054748,31.1860409223223,6.19982149001045,0.390004754066467,0.931515991687775,-0.50586861371994
8.53247142846519,-0.570882613054748,31.1860409223223,6.19982149001045,0.390523552894592,0.932162821292877,-0.506353735923767
8.53247142846519,-0.570882613054748,31.1860409223223,6.19982149001045,0.391042143106461,0.932807624340057,-0.506838083267212
8.53247142846519,-0.570882613054748,31.1860409223223,6.19982149001045,0.391560554504395,0.933450400829315,-0.507321715354919
8.53247142846519,-0.570882613054748,31.1860409223223,6.19982149001045,0.392078757286072,0.934091091156006,-0.50780463218689
8.53247142846519,-0.570882613054748,31.1860409223223,6.19982149001045,0.392596751451492,0.934729754924774,-0.508286774158478
8.53247142846519,-0.570882613054748,31.1860409223223,6.19982149001045,0.393114566802979,0.93536639213562,-0.508768200874329
8.53247142846519,-0.570882613054748,31.1860409223223,6.19982149001045,0.393632173538208,0.936001002788544,-0.509248912334442
8.53247142846519,-0.570882613054748,31.1860409223223,6.19982149001045,0.394149571657181,0.936633586883545,-0.509728908538818
8.53247142846519,-0.570882613054748,31.1860409223223,6.19982149001045,0.394666790962219,0.937264144420624,-0.510208129882813
8.53247142846519,-0.570882613054748,31.1860409223223,6.19982149001045,0.395183801651001,0.93789267539978,-0.510686635971069
8.53247142846519,-0.570882613054748,31.1860409223223,6.19982149001045,0.395700633525848,0.938519179821014,-0.511164426803589
8.53247142846519,-0.570882613054748,31.1860409223223,6.19982149001045,0.396217256784439,0.939143717288971,-0.511641502380371
8.53247142846519,-0.570882613054748,31.1860409223223,6.19982149001045,0.396733701229095,0.939766228199005,-0.512117862701416
8.53247142846519,-0.570882613054748,31.1860409223223,6.19982149001045,0.397249937057495,0.940386712551117,-0.512593507766724
8.53247142846519,-0.570882613054748,31.1860409223223,6.19982149001045,0.39776599407196,0.941005229949951,-0.513068437576294
8.53247142846519,-0.570882613054748,31.1860409223223,6.19982149001045,0.398281872272491,0.941621720790863,-0.513542652130127
8.53247142846519,-0.570882613054748,31.1860409223223,6.19982149001045,0.398797541856766,0.942236244678497,-0.514016151428223
8.53247142846519,-0.570882613054748,31.1860409223223,6.19982149001045,0.399313032627106,0.942848742008209,-0.514488935470581
8.53247142846519,-0.570882613054748,31.1860409223223,6.19982149001045,0.399828344583511,0.943459272384644,-0.514961004257202
8.53247142846519,-0.570882613054748,31.1860409223223,6.19982149001045,0.400343477725983,0.9440678358078,-0.515432357788086
8.53247142846519,-0.570882613054748,31.1860409223223,6.19982149001045,0.400858402252197,0.944674372673035,-0.515902996063232
8.53247142846519,-0.570882613054748,31.1860409223223,6.19982149001045,0.401373147964478,0.945278942584991,-0.516372919082642
8.53247142846519,-0.570882613054748,31.1860409223223,6.19982149001045,0.401887714862823,0.945881545543671,-0.516842126846313
8.53247142846519,-0.570882613054748,31.1860409223223,6.19982149001045,0.402402102947235,0.946482181549072,-0.517310678958893
8.53247142846519,-0.570882613054748,31.1860409223223,6.19982149001045,0.402916312217712,0.947080850601196,-0.517778515815735
8.53247142846519,-0.570882613054748,31.1860409223223,6.19982149001045,0.403430342674255,0.947677552700043,-0.51824563741684
8.53247142846519,-0.570882613054748,31.1860409223223,6.19982149001045,0.403944194316864,0.948272287845612,-0.518712043762207
8.53247142846519,-0.570882613054748,31.1860409223223,6.19982149001045,0.404457867145538,0.948865115642548,-0.519177794456482
8.53247142846519,-0.570882613054748,31.1860409223223,6.19982149001045,0.404971361160278,0.949455976486206,-0.51964282989502
8.53247142846519,-0.570882613054748,31.1860409223223,6.19982149001045,0.405484676361084,0.950044870376587,-0.520107209682465
8.53247142846519,-0.570882613054748,31.1860409223223,6.19982149001045,0.405997812747955,0.950631856918335,-0.520570874214172
8.53247142846519,-0.570882613054748,31.1860409223223,6.19982149001045,0.406510770320892,0.951216876506805,-0.521033823490143
8.53247142846519,-0.570882613054748,31.1860409223223,6.19982149001045,0.407023549079895,0.951799988746643,-0.521496117115021
8.53247142846519,-0.570882613054748,31.1860409223223,6.19982149001045,0.407536149024963,0.952381134033203,-0.521957695484161
8.53247142846519,-0.570882613054748,31.1860409223223,6.19982149001045,0.408048570156097,0.95296037197113,-0.522418618202209
8.53247142846519,-0.570882613054748,31.1860409223223,6.19982149001045,0.408560812473297,0.953537702560425,-0.52287882566452
8.53247142846519,-0.570882613054748,31.1860409223223,6.19982149001045,0.409072905778885,0.954113066196442,-0.523338377475739
8.53247142846519,-0.570882613054748,31.1860409223223,6.19982149001045,0.409584820270538,0.954686522483826,-0.523797273635864
8.53247142846519,-0.570882613054748,31.1860409223223,6.19982149001045,0.410096555948257,0.955258071422577,-0.524255454540253
8.53247142846519,-0.570882613054748,31.1860409223223,6.19982149001045,0.410608112812042,0.955827713012695,-0.524712979793549
8.53247142846519,-0.570882613054748,31.1860409223223,6.19982149001045,0.411119520664215,0.956395447254181,-0.525169849395752
8.53247142846519,-0.570882613054748,31.1860409223223,6.19982149001045,0.411630749702454,0.956961274147034,-0.525626003742218
8.53247142846519,-0.570882613054748,31.1860409223223,6.19982149001045,0.41214182972908,0.957525193691254,-0.526081502437592
8.53247142846519,-0.570882613054748,31.1860409223223,6.19982149001045,0.412652730941772,0.958087205886841,-0.526536345481873
8.53247142846519,-0.570882613054748,31.1860409223223,6.19982149001045,0.41316345334053,0.95864737033844,-0.526990532875061
8.53247142846519,-0.570882613054748,31.1860409223223,6.19982149001045,0.413674026727676,0.959205627441406,-0.527444005012512
8.53247142846519,-0.570882613054748,31.1860409223223,6.19982149001045,0.414184421300888,0.95976197719574,-0.527896821498871
8.53247142846519,-0.570882613054748,31.1860409223223,6.19982149001045,0.414694666862488,0.960316479206085,-0.528348982334137
8.53247142846519,-0.570882613054748,31.1860409223223,6.19982149001045,0.415204733610153,0.960869073867798,-0.528800487518311
8.53247142846519,-0.570882613054748,31.1860409223223,6.19982149001045,0.415714651346207,0.961419820785522,-0.529251337051392
8.53247142846519,-0.570882613054748,31.1860409223223,6.19982149001045,0.416224420070648,0.961968660354614,-0.52970153093338
8.53247142846519,-0.570882613054748,31.1860409223223,6.19982149001045,0.416734009981155,0.962515652179718,-0.530151069164276
8.53247142846519,-0.570882613054748,31.1860409223223,6.19982149001045,0.417243450880051,0.963060796260834,-0.53059995174408
8.53247142846519,-0.570882613054748,31.1860409223223,6.19982149001045,0.417752742767334,0.963604092597961,-0.531048178672791
8.53247142846519,-0.570882613054748,31.1860409223223,6.19982149001045,0.418261855840683,0.964145481586456,-0.531495749950409
8.53247142846519,-0.570882613054748,31.1860409223223,6.19982149001045,0.41877081990242,0.964685022830963,-0.531942665576935
8.53247142846519,-0.570882613054748,31.1860409223223,6.19982149001045,0.419279634952545,0.965222716331482,-0.532388925552368
8.53247142846519,-0.570882613054748,31.1860409223223,6.19982149001045,0.419788300991058,0.965758562088013,-0.532834589481354
8.53247142846519,-0.570882613054748,31.1860409223223,6.19982149001045,0.420296788215637,0.966292560100555,-0.533279597759247
8.53247142846519,-0.570882613054748,31.1860409223223,6.19982149001045,0.420805126428604,0.96682471036911,-0.533723950386047
8.53247142846519,-0.570882613054748,31.1860409223223,6.19982149001045,0.421313315629959,0.967355072498322,-0.534167647361755
8.53247142846519,-0.570882613054748,31.1860409223223,6.19982149001045,0.421821355819702,0.967883586883545,-0.534610688686371
8.53247142846519,-0.570882613054748,31.1860409223223,6.19982149001045,0.422329246997833,0.96841025352478,-0.535053133964539
8.53247142846519,-0.570882613054748,31.1860409223223,6.19982149001045,0.422836989164352,0.968935132026672,-0.535494923591614
8.53247142846519,-0.570882613054748,31.1860409223223,6.19982149001045,0.42334458231926,0.969458162784576,-0.535936057567596
8.53247142846519,-0.570882613054748,31.1860409223223,6.19982149001045,0.423852026462555,0.969979405403137,-0.536376595497131
8.53247142846519,-0.570882613054748,31.1860409223223,6.19982149001045,0.424359321594238,0.97049880027771,-0.536816477775574
8.53247142846519,-0.570882613054748,31.1860409223223,6.19982149001045,0.42486646771431,0.971016407012939,-0.537255764007568
8.53247142846519,-0.570882613054748,31.1860409223223,6.19982149001045,0.425373464822769,0.971532166004181,-0.53769439458847
8.53247142846519,-0.570882613054748,31.1860409223223,6.19982149001045,0.425880312919617,0.972046136856079,-0.538132429122925
8.53247142846519,-0.570882613054748,31.1860409223223,6.19982149001045,0.426387012004852,0.972558319568634,-0.538569808006287
8.53247142846519,-0.570882613054748,31.1860409223223,6.19982149001045,0.426893591880798,0.973068714141846,-0.539006590843201
8.53247142846519,-0.570882613054748,31.1860409223223,6.19982149001045,0.427400022745132,0.973577320575714,-0.539442718029022
8.53247142846519,-0.570882613054748,31.1860409223223,6.19982149001045,0.427906304597855,0.974084138870239,-0.539878249168396
8.53247142846519,-0.570882613054748,31.1860409223223,6.19982149001045,0.428412437438965,0.974589169025421,-0.540313124656677
8.53247142846519,-0.570882613054748,31.1860409223223,6.19982149001045,0.428918451070786,0.97509241104126,-0.540747404098511
8.53247142846519,-0.570882613054748,31.1860409223223,6.19982149001045,0.429424315690994,0.975593864917755,-0.541181087493896
8.53247142846519,-0.570882613054748,31.1860409223223,6.19982149001045,0.429930031299591,0.976093530654907,-0.54161411523819
8.53247142846519,-0.570882613054748,31.1860409223223,6.19982149001045,0.430435627698898,0.976591408252716,-0.542046546936035
8.53247142846519,-0.570882613054748,31.1860409223223,6.19982149001045,0.430941075086594,0.977087557315826,-0.542478382587433
8.53247142846519,-0.570882613054748,31.1860409223223,6.19982149001045,0.431446373462677,0.977581918239594,-0.542909622192383
8.53247142846519,-0.570882613054748,31.1860409223223,6.19982149001045,0.431951552629471,0.978074550628662,-0.54334020614624
8.53247142846519,-0.570882613054748,31.1860409223223,6.19982149001045,0.432456582784653,0.978565394878387,-0.54377019405365
8.53247142846519,-0.570882613054748,31.1860409223223,6.19982149001045,0.432961493730545,0.979054510593414,-0.544199585914612
8.53247142846519,-0.570882613054748,31.1860409223223,6.19982149001045,0.433466255664825,0.979541838169098,-0.544628381729126
8.53247142846519,-0.570882613054748,31.1860409223223,6.19982149001045,0.433970898389816,0.980027437210083,-0.545056581497192
8.53247142846519,-0.570882613054748,31.1860409223223,6.19982149001045,0.434475392103195,0.98051130771637,-0.545484185218811
8.53247142846519,-0.570882613054748,31.1860409223223,6.19982149001045,0.434979766607285,0.980993390083313,-0.545911192893982
8.53247142846519,-0.570882613054748,31.1860409223223,6.19982149001045,0.435484021902084,0.981473743915558,-0.546337604522705
8.53247142846519,-0.570882613054748,31.1860409223223,6.19982149001045,0.435988128185272,0.981952369213104,-0.54676342010498
8.53247142846519,-0.570882613054748,31.1860409223223,6.19982149001045,0.436492115259171,0.982429265975952,-0.547188639640808
8.53247142846519,-0.570882613054748,31.1860409223223,6.19982149001045,0.436995983123779,0.982904434204102,-0.547613263130188
8.53247142846519,-0.570882613054748,31.1860409223223,6.19982149001045,0.437499701976776,0.983377873897552,-0.54803729057312
8.53247142846519,-0.570882613054748,31.1860409223223,6.19982149001045,0.438003301620483,0.983849585056305,-0.548460721969604
8.53247142846519,-0.570882613054748,31.1860409223223,6.19982149001045,0.438506782054901,0.984319627285004,-0.548883557319641
8.53247142846519,-0.570882613054748,31.1860409223223,6.19982149001045,0.439010143280029,0.984787940979004,-0.54930579662323
8.53247142846519,-0.570882613054748,31.1860409223223,6.19982149001045,0.439513385295868,0.985254526138306,-0.549727499485016
8.53247142846519,-0.570882613054748,31.1860409223223,6.19982149001045,0.440016478300095,0.985719382762909,-0.550148606300354
8.53247142846519,-0.570882613054748,31.1860409223223,6.19982149001045,0.440519452095032,0.986182570457459,-0.550569117069244
8.53247142846519,-0.570882613054748,31.1860409223223,6.19982149001045,0.441022306680679,0.98664402961731,-0.550989031791687
8.53247142846519,-0.570882613054748,31.1860409223223,6.19982149001045,0.441525042057037,0.987103819847107,-0.551408410072327
8.53247142846519,-0.570882613054748,31.1860409223223,6.19982149001045,0.442027658224106,0.987561941146851,-0.551827192306519
8.53247142846519,-0.570882613054748,31.1860409223223,6.19982149001045,0.442530155181885,0.988018333911896,-0.552245378494263
8.53247142846519,-0.570882613054748,31.1860409223223,6.19982149001045,0.443032532930374,0.988473057746887,-0.552663028240204
8.53247142846519,-0.570882613054748,31.1860409223223,6.19982149001045,0.443534791469574,0.988926112651825,-0.553080081939697
8.53247142846519,-0.570882613054748,31.1860409223223,6.19982149001045,0.444036930799484,0.989377439022064,-0.553496539592743
8.53247142846519,-0.570882613054748,31.1860409223223,6.19982149001045,0.444538950920105,0.98982709646225,-0.553912460803986
8.53247142846519,-0.570882613054748,31.1860409223223,6.19982149001045,0.445040881633759,0.990275084972382,-0.554327785968781
8.53247142846519,-0.570882613054748,31.1860409223223,6.19982149001045,0.445542693138123,0.99072140455246,-0.554742574691772
8.53247142846519,-0.570882613054748,31.1860409223223,6.19982149001045,0.446044385433197,0.991166055202484,-0.555156767368317
8.53247142846519,-0.570882613054748,31.1860409223223,6.19982149001045,0.446545958518982,0.991609036922455,-0.555570423603058
8.53247142846519,-0.570882613054748,31.1860409223223,6.19982149001045,0.447047412395477,0.992050409317017,-0.555983543395996
8.53247142846519,-0.570882613054748,31.1860409223223,6.19982149001045,0.447548776865005,0.992490112781525,-0.556396067142487
8.53247142846519,-0.570882613054748,31.1860409223223,6.19982149001045,0.448050022125244,0.992928147315979,-0.556808054447174
8.53247142846519,-0.570882613054748,31.1860409223223,6.19982149001045,0.448551148176193,0.99336451292038,-0.557219505310059
8.53247142846519,-0.570882613054748,31.1860409223223,6.19982149001045,0.449052155017853,0.993799269199371,-0.557630360126495
8.53247142846519,-0.570882613054748,31.1860409223223,6.19982149001045,0.449553072452545,0.994232356548309,-0.558040678501129
8.53247142846519,-0.570882613054748,31.1860409223223,6.19982149001045,0.450053870677948,0.994663834571838,-0.55845046043396
8.53247142846519,-0.570882613054748,31.1860409223223,6.19982149001045,0.450554579496384,0.995093643665314,-0.558859646320343
8.53247142846519,-0.570882613054748,31.1860409223223,6.19982149001045,0.45105516910553,0.99552184343338,-0.559268295764923
8.53247142846519,-0.570882613054748,31.1860409223223,6.19982149001045,0.451555639505386,0.995948433876038,-0.5596764087677
8.53247142846519,-0.570882613054748,31.1860409223223,6.19982149001045,0.452056020498276,0.996373355388641,-0.560083985328674
8.53247142846519,-0.570882613054748,31.1860409223223,6.19982149001045,0.452556282281876,0.996796667575836,-0.560491025447845
8.53247142846519,-0.570882613054748,31.1860409223223,6.19982149001045,0.453056454658508,0.997218370437622,-0.560897529125214
8.53247142846519,-0.570882613054748,31.1860409223223,6.19982149001045,0.453556537628174,0.997638463973999,-0.561303496360779
8.53247142846519,-0.570882613054748,31.1860409223223,6.19982149001045,0.45405650138855,0.998056948184967,-0.561708927154541
8.53247142846519,-0.570882613054748,31.1860409223223,6.19982149001045,0.454556375741959,0.998473823070526,-0.5621138215065
8.53247142846519,-0.570882613054748,31.1860409223223,6.19982149001045,0.455056130886078,0.998889088630676,-0.562518179416656
8.53247142846519,-0.570882613054748,31.1860409223223,6.19982149001045,0.45555579662323,0.999302744865417,-0.56292200088501
8.53247142846519,-0.570882613054748,31.1860409223223,6.19982149001045,0.456055372953415,0.99971479177475,-0.56332528591156
8.53247142846519,-0.570882613054748,31.1860409223223,6.19982149001045,0.45655483007431,1.00012528896332,-0.563728034496307
8.53247142846519,-0.570882613054748,31.1860409223223,6.19982149001045,0.456912517547607,1.00048768520355,-0.564154207706451
8.53247142846519,-0.570882613054748,31.1860409223223,6.19982149001045,0.456986725330353,1.00075542926788,-0.564627826213837
8.53247142846519,-0.570882613054748,31.1860409223223,6.19982149001045,0.456828325986862,1.00092422962189,-0.565118312835693
8.53247142846519,-0.570882613054748,31.1860409223223,6.19982149001045,0.456488162279129,1.00098979473114,-0.565595209598541
8.53247142846519,-0.570882613054748,31.1860409223223,6.19982149001045,0.455966264009476,1.00095200538635,-0.56605851650238
8.53247142846519,-0.570882613054748,31.1860409223223,6.19982149001045,0.45526260137558,1.00081098079681,-0.566508233547211
8.53247142846519,-0.570882613054748,31.1860409223223,6.19982149001045,0.454377204179764,1.00056660175323,-0.566944360733032
8.53247142846519,-0.570882613054748,31.1860409223223,6.19982149001045,0.453315854072571,1.00023782253265,-0.567385017871857
8.53247142846519,-0.570882613054748,31.1860409223223,6.19982149001045,0.452084392309189,0.999843537807465,-0.567848443984985
8.53247142846519,-0.570882613054748,31.1860409223223,6.19982149001045,0.450682818889618,0.999383747577667,-0.568334579467773
8.53247142846519,-0.570882613054748,31.1860409223223,6.19982149001045,0.449111133813858,0.998858451843262,-0.568843483924866
8.53247142846519,-0.570882613054748,31.1860409223223,6.19982149001045,0.447369307279587,0.998267650604248,-0.569375097751617
8.53247142846519,-0.570882613054748,31.1860409223223,6.19982149001045,0.44551694393158,0.997625172138214,-0.569923639297485
8.53247142846519,-0.570882613054748,31.1860409223223,6.19982149001045,0.443613648414612,0.996944844722748,-0.570483267307281
8.53247142846519,-0.570882613054748,31.1860409223223,6.19982149001045,0.441659390926361,0.996226608753204,-0.571054041385651
8.53247142846519,-0.570882613054748,31.1860409223223,6.19982149001045,0.43965420126915,0.995470523834229,-0.571635901927948
8.53247142846519,-0.570882613054748,31.1860409223223,6.19982149001045,0.437598049640656,0.994676530361176,-0.572228908538818
8.53247142846519,-0.570882613054748,31.1860409223223,6.19982149001045,0.435577422380447,0.993859946727753,-0.57287734746933
8.53247142846519,-0.570882613054748,31.1860409223223,6.19982149001045,0.433678776025772,0.993036031723022,-0.573625564575195
8.53247142846519,-0.570882613054748,31.1860409223223,6.19982149001045,0.43190211057663,0.992204785346985,-0.574473559856415
8.53247142846519,-0.570882613054748,31.1860409223223,6.19982149001045,0.430247455835342,0.99136620759964,-0.575421333312988
8.53247142846519,-0.570882613054748,31.1860409223223,6.19982149001045,0.428856462240219,0.990566790103912,-0.576444923877716
8.53247142846519,-0.570882613054748,31.1860409223223,6.19982149001045,0.427895545959473,0.989829063415527,-0.577534854412079
8.53247142846519,-0.570882613054748,31.1860409223223,6.19982149001045,0.427338570356369,0.989133417606354,-0.578736186027527
8.53247142846519,-0.570882613054748,31.1860409223223,6.19982149001045,0.42713463306427,0.98848420381546,-0.580079436302185
8.53247142846519,-0.570882613054748,31.1860409223223,6.19982149001045,0.427283763885498,0.987881422042847,-0.581564605236053
8.53247142846519,-0.570882613054748,31.1860409223223,6.19982149001045,0.427785962820053,0.987325131893158,-0.583191692829132
8.53247142846519,-0.570882613054748,31.1860409223223,6.19982149001045,0.428667366504669,0.986846506595612,-0.584931671619415
8.53247142846519,-0.570882613054748,31.1860409223223,6.19982149001045,0.429948329925537,0.986457943916321,-0.586737275123596
8.53247142846519,-0.570882613054748,31.1860409223223,6.19982149001045,0.431623071432114,0.986140549182892,-0.588590323925018
8.53247142846519,-0.570882613054748,31.1860409223223,6.19982149001045,0.433691561222076,0.985894322395325,-0.590490877628326
8.53247142846519,-0.570882613054748,31.1860409223223,6.19982149001045,0.436153799295425,0.985719263553619,-0.592438876628876
8.53247142846519,-0.570882613054748,31.1860409223223,6.19982149001045,0.43901053071022,0.985576152801514,-0.594447433948517
8.53247142846519,-0.570882613054748,31.1860409223223,6.19982149001045,0.442202866077423,0.985411942005157,-0.596535444259644
8.53247142846519,-0.570882613054748,31.1860409223223,6.19982149001045,0.445671260356903,0.985212802886963,-0.598708689212799
8.53247142846519,-0.570882613054748,31.1860409223223,6.19982149001045,0.449415683746338,0.984978795051575,-0.600967228412628
8.53247142846519,-0.570882613054748,31.1860409223223,6.19982149001045,0.45343616604805,0.984709858894348,-0.603311002254486
8.53247142846519,-0.570882613054748,31.1860409223223,6.19982149001045,0.457729786634445,0.984425663948059,-0.605745851993561
8.53247142846519,-0.570882613054748,31.1860409223223,6.19982149001045,0.462207168340683,0.984130561351776,-0.608233273029327
8.53247142846519,-0.570882613054748,31.1860409223223,6.19982149001045,0.466781854629517,0.983809292316437,-0.610728979110718
8.53247142846519,-0.570882613054748,31.1860409223223,6.19982149001045,0.471453845500946,0.983461856842041,-0.613232910633087
8.53247142846519,-0.570882613054748,31.1860409223223,6.19982149001045,0.476223111152649,0.983088254928589,-0.615745067596436
8.53247142846519,-0.570882613054748,31.1860409223223,6.19982149001045,0.481070071458817,0.9826899766922,-0.618294596672058
8.53247142846519,-0.570882613054748,31.1860409223223,6.19982149001045,0.485950380563736,0.982292413711548,-0.62089592218399
8.53247142846519,-0.570882613054748,31.1860409223223,6.19982149001045,0.49083936214447,0.981919586658478,-0.623534619808197
8.53247142846519,-0.570882613054748,31.1860409223223,6.19982149001045,0.495736986398697,0.981571435928345,-0.626210629940033
8.53247142846519,-0.570882613054748,31.1860409223223,6.19982149001045,0.500643253326416,0.981248021125793,-0.628923952579498
8.53247142846519,-0.570882613054748,31.1860409223223,6.19982149001045,0.505515336990356,0.980977654457092,-0.631660044193268
8.53247142846519,-0.570882613054748,31.1860409223223,6.19982149001045,0.510284185409546,0.980757474899292,-0.634433448314667
8.53247142846519,-0.570882613054748,31.1860409223223,6.19982149001045,0.514923632144928,0.980556190013886,-0.637273252010345
8.53247142846519,-0.570882613054748,31.1860409223223,6.19982149001045,0.519433677196503,0.980373799800873,-0.640179455280304
8.53247142846519,-0.570882613054748,31.1860409223223,6.19982149001045,0.52381432056427,0.980210363864899,-0.643152058124542
8.53247142846519,-0.570882613054748,31.1860409223223,6.19982149001045,0.528077900409698,0.980046212673187,-0.646158337593079
8.53247142846519,-0.570882613054748,31.1860409223223,6.19982149001045,0.532236099243164,0.979901015758514,-0.64915257692337
8.53247142846519,-0.570882613054748,31.1860409223223,6.19982149001045,0.536288142204285,0.979813992977142,-0.652121663093567
8.53247142846519,-0.570882613054748,31.1860409223223,6.19982149001045,0.54023402929306,0.979785144329071,-0.655065596103668
8.53247142846519,-0.570882613054748,31.1860409223223,6.19982149001045,0.544073760509491,0.979814469814301,-0.657984375953674
8.53247142846519,-0.570882613054748,31.1860409223223,6.19982149001045,0.547740519046783,0.979864180088043,-0.660893976688385
8.53247142846519,-0.570882613054748,31.1860409223223,6.19982149001045,0.551170349121094,0.97987687587738,-0.663804590702057
8.53247142846519,-0.570882613054748,31.1860409223223,6.19982149001045,0.554366171360016,0.979832947254181,-0.666710376739502
8.53247142846519,-0.570882613054748,31.1860409223223,6.19982149001045,0.557327926158905,0.979732394218445,-0.669611394405365
8.53247142846519,-0.570882613054748,31.1860409223223,6.19982149001045,0.560055673122406,0.979575216770172,-0.672507584095001
8.53247142846519,-0.570882613054748,31.1860409223223,6.19982149001045,0.562518894672394,0.979406476020813,-0.675324141979218
8.53247142846519,-0.570882613054748,31.1860409223223,6.19982149001045,0.564706683158875,0.979269802570343,-0.67795717716217
8.53247142846519,-0.570882613054748,31.1860409223223,6.19982149001045,0.566638648509979,0.979163706302643,-0.680377602577209
8.53247142846519,-0.570882613054748,31.1860409223223,6.19982149001045,0.568314790725708,0.979088187217712,-0.682585418224335
8.53247142846519,-0.570882613054748,31.1860409223223,6.19982149001045,0.569735109806061,0.979043245315552,-0.684580624103546
8.53247142846519,-0.570882613054748,31.1860409223223,6.19982149001045,0.570902526378632,0.979020953178406,-0.686398088932037
8.53247142846519,-0.570882613054748,31.1860409223223,6.19982149001045,0.571862757205963,0.978984951972961,-0.688087224960327
8.53247142846519,-0.570882613054748,31.1860409223223,6.19982149001045,0.572658777236938,0.978906869888306,-0.689662575721741
8.53247142846519,-0.570882613054748,31.1860409223223,6.19982149001045,0.573290526866913,0.978786706924438,-0.691124141216278
8.53247142846519,-0.570882613054748,31.1860409223223,6.19982149001045,0.573758006095886,0.978624522686005,-0.692471921443939
8.53247142846519,-0.570882613054748,31.1860409223223,6.19982149001045,0.574003100395203,0.978405773639679,-0.693668186664581
8.53247142846519,-0.570882613054748,31.1860409223223,6.19982149001045,0.573955297470093,0.978135526180267,-0.694707810878754
8.53247142846519,-0.570882613054748,31.1860409223223,6.19982149001045,0.573602259159088,0.977833390235901,-0.695623457431793
8.53247142846519,-0.570882613054748,31.1860409223223,6.19982149001045,0.572944045066834,0.97749936580658,-0.696415185928345
8.53247142846519,-0.570882613054748,31.1860409223223,6.19982149001045,0.571980595588684,0.977133512496948,-0.697082936763763
8.53247142846519,-0.570882613054748,31.1860409223223,6.19982149001045,0.57070392370224,0.976740181446075,-0.697636902332306
8.53247142846519,-0.570882613054748,31.1860409223223,6.19982149001045,0.569172918796539,0.976361453533173,-0.698071300983429
8.53247142846519,-0.570882613054748,31.1860409223223,6.19982149001045,0.567454397678375,0.976035177707672,-0.698370158672333
8.53247142846519,-0.570882613054748,31.1860409223223,6.19982149001045,0.565548360347748,0.975761353969574,-0.698533415794373
8.53247142846519,-0.570882613054748,31.1860409223223,6.19982149001045,0.563454806804657,0.975539982318878,-0.698561131954193
8.53247142846519,-0.570882613054748,31.1860409223223,6.19982149001045,0.561187565326691,0.975372493267059,-0.6984503865242
8.53247142846519,-0.570882613054748,31.1860409223223,6.19982149001045,0.558790922164917,0.975215315818787,-0.698273122310638
8.53247142846519,-0.570882613054748,31.1860409223223,6.19982149001045,0.556295454502106,0.97502338886261,-0.6981041431427
8.53247142846519,-0.570882613054748,31.1860409223223,6.19982149001045,0.553701102733612,0.974796712398529,-0.697943449020386
8.53247142846519,-0.570882613054748,31.1860409223223,6.19982149001045,0.551007926464081,0.974535286426544,-0.69779109954834
8.53247142846519,-0.570882613054748,31.1860409223223,6.19982149001045,0.548216581344604,0.974217355251312,-0.697598397731781
8.53247142846519,-0.570882613054748,31.1860409223223,6.19982149001045,0.545324921607971,0.973829090595245,-0.697281777858734
8.53247142846519,-0.570882613054748,31.1860409223223,6.19982149001045,0.542330086231232,0.973378479480743,-0.696806311607361
8.53247142846519,-0.570882613054748,31.1860409223223,6.19982149001045,0.539232015609741,0.972865521907806,-0.696172058582306
8.53247142846519,-0.570882613054748,31.1860409223223,6.19982149001045,0.536030769348145,0.972290217876434,-0.695379018783569
8.53247142846519,-0.570882613054748,31.1860409223223,6.19982149001045,0.532690703868866,0.971650421619415,-0.694436609745026
8.53247142846519,-0.570882613054748,31.1860409223223,6.19982149001045,0.529234349727631,0.970958471298218,-0.693392097949982
8.53247142846519,-0.570882613054748,31.1860409223223,6.19982149001045,0.525719821453094,0.970228910446167,-0.69228321313858
8.53247142846519,-0.570882613054748,31.1860409223223,6.19982149001045,0.522147119045258,0.969461739063263,-0.691110014915466
8.53247142846519,-0.570882613054748,31.1860409223223,6.19982149001045,0.51851624250412,0.968656957149506,-0.68987250328064
8.53247142846519,-0.570882613054748,31.1860409223223,6.19982149001045,0.514857053756714,0.967797100543976,-0.688514709472656
8.53247142846519,-0.570882613054748,31.1860409223223,6.19982149001045,0.511207282543182,0.966860413551331,-0.686970472335815
8.53247142846519,-0.570882613054748,31.1860409223223,6.19982149001045,0.507574915885925,0.965842485427856,-0.685229659080505
8.53247142846519,-0.570882613054748,31.1860409223223,6.19982149001045,0.503959953784943,0.964743375778198,-0.683292269706726
8.53247142846519,-0.570882613054748,31.1860409223223,6.19982149001045,0.500362396240234,0.963563084602356,-0.681158304214478
8.53247142846519,-0.570882613054748,31.1860409223223,6.19982149001045,0.496757537126541,0.962313234806061,-0.678861916065216
8.53247142846519,-0.570882613054748,31.1860409223223,6.19982149001045,0.49310690164566,0.961003959178925,-0.676440179347992
8.53247142846519,-0.570882613054748,31.1860409223223,6.19982149001045,0.489396661520004,0.959633886814117,-0.673896014690399
8.53247142846519,-0.570882613054748,31.1860409223223,6.19982149001045,0.485626816749573,0.958202958106995,-0.671229362487793
8.53247142846519,-0.570882613054748,31.1860409223223,6.19982149001045,0.481797367334366,0.956711173057556,-0.668440282344818
8.53247142846519,-0.570882613054748,31.1860409223223,6.19982149001045,0.477938830852509,0.955171644687653,-0.665533125400543
8.53247142846519,-0.570882613054748,31.1860409223223,6.19982149001045,0.474080979824066,0.953619241714478,-0.662560939788818
8.53247142846519,-0.570882613054748,31.1860409223223,6.19982149001045,0.470223128795624,0.952075779438019,-0.65957236289978
8.53247142846519,-0.570882613054748,31.1860409223223,6.19982149001045,0.466365247964859,0.950541257858276,-0.656567454338074
8.53247142846519,-0.570882613054748,31.1860409223223,6.19982149001045,0.462507367134094,0.94901567697525,-0.653546154499054
8.53247142846519,-0.570882613054748,31.1860409223223,6.19982149001045,0.458682149648666,0.947491765022278,-0.650493264198303
8.53247142846519,-0.570882613054748,31.1860409223223,6.19982149001045,0.45495793223381,0.945964455604553,-0.64738404750824
8.53247142846519,-0.570882613054748,31.1860409223223,6.19982149001045,0.451370298862457,0.944435894489288,-0.644209086894989
8.53247142846519,-0.570882613054748,31.1860409223223,6.19982149001045,0.447919249534607,0.942906141281128,-0.640968322753906
8.53247142846519,-0.570882613054748,31.1860409223223,6.19982149001045,0.444604784250259,0.941375136375427,-0.637661814689636
8.53247142846519,-0.570882613054748,31.1860409223223,6.19982149001045,0.441417455673218,0.939860343933105,-0.634319365024567
8.53247142846519,-0.570882613054748,31.1860409223223,6.19982149001045,0.43831804394722,0.938396692276001,-0.631026685237885
8.53247142846519,-0.570882613054748,31.1860409223223,6.19982149001045,0.435276746749878,0.937001585960388,-0.627839744091034
8.53247142846519,-0.570882613054748,31.1860409223223,6.19982149001045,0.432293564081192,0.935675024986267,-0.62475848197937
8.53247142846519,-0.570882613054748,31.1860409223223,6.19982149001045,0.429368525743485,0.934417009353638,-0.621782958507538
8.53247142846519,-0.570882613054748,31.1860409223223,6.19982149001045,0.426551729440689,0.933180332183838,-0.6189124584198
8.53247142846519,-0.570882613054748,31.1860409223223,6.19982149001045,0.423918038606644,0.93190610408783,-0.616112112998962
8.53247142846519,-0.570882613054748,31.1860409223223,6.19982149001045,0.421492159366608,0.930582702159882,-0.613347709178925
8.53247142846519,-0.570882613054748,31.1860409223223,6.19982149001045,0.419274061918259,0.929210186004639,-0.610619306564331
8.53247142846519,-0.570882613054748,31.1860409223223,6.19982149001045,0.417263776063919,0.927788496017456,-0.607926845550537
8.53247142846519,-0.570882613054748,31.1860409223223,6.19982149001045,0.415495455265045,0.926346719264984,-0.605226814746857
8.53247142846519,-0.570882613054748,31.1860409223223,6.19982149001045,0.413972735404968,0.924900889396667,-0.602471172809601
8.53247142846519,-0.570882613054748,31.1860409223223,6.19982149001045,0.412665069103241,0.923437893390656,-0.599655628204346
8.53247142846519,-0.570882613054748,31.1860409223223,6.19982149001045,0.411572486162186,0.921957731246948,-0.596780121326447
8.53247142846519,-0.570882613054748,31.1860409223223,6.19982149001045,0.410694986581802,0.920460402965546,-0.593844711780548
8.53247142846519,-0.570882613054748,31.1860409223223,6.19982149001045,0.410071790218353,0.918983697891235,-0.590908944606781
8.53247142846519,-0.570882613054748,31.1860409223223,6.19982149001045,0.409709453582764,0.917572677135468,-0.588047683238983
8.53247142846519,-0.570882613054748,31.1860409223223,6.19982149001045,0.409575253725052,0.916234612464905,-0.585276186466217
8.53247142846519,-0.570882613054748,31.1860409223223,6.19982149001045,0.40966922044754,0.914969503879547,-0.582594454288483
8.53247142846519,-0.570882613054748,31.1860409223223,6.19982149001045,0.409991353750229,0.913777351379395,-0.58000248670578
8.53247142846519,-0.570882613054748,31.1860409223223,6.19982149001045,0.410530000925064,0.912652313709259,-0.577495932579041
8.53247142846519,-0.570882613054748,31.1860409223223,6.19982149001045,0.411283016204834,0.911571145057678,-0.575040638446808
8.53247142846519,-0.570882613054748,31.1860409223223,6.19982149001045,0.412259817123413,0.910516440868378,-0.572606801986694
8.53247142846519,-0.570882613054748,31.1860409223223,6.19982149001045,0.413460433483124,0.909488201141357,-0.5701944231987
8.53247142846519,-0.570882613054748,31.1860409223223,6.19982149001045,0.414884835481644,0.908486425876617,-0.567803502082825
8.53247142846519,-0.570882613054748,31.1860409223223,6.19982149001045,0.416530877351761,0.907531499862671,-0.565469682216644
8.53247142846519,-0.570882613054748,31.1860409223223,6.19982149001045,0.418346226215363,0.906690955162048,-0.563229262828827
8.53247142846519,-0.570882613054748,31.1860409223223,6.19982149001045,0.42028072476387,0.906012058258057,-0.56108295917511
8.53247142846519,-0.570882613054748,31.1860409223223,6.19982149001045,0.422334402799606,0.905494749546051,-0.559030830860138
8.53247142846519,-0.570882613054748,31.1860409223223,6.19982149001045,0.424507260322571,0.905139088630676,-0.557072818279266
8.53247142846519,-0.570882613054748,31.1860409223223,6.19982149001045,0.426812380552292,0.90493780374527,-0.555212557315826
8.53247142846519,-0.570882613054748,31.1860409223223,6.19982149001045,0.429228663444519,0.904854536056519,-0.553497314453125
8.53247142846519,-0.570882613054748,31.1860409223223,6.19982149001045,0.431721985340118,0.904860258102417,-0.551970660686493
8.53247142846519,-0.570882613054748,31.1860409223223,6.19982149001045,0.434292316436768,0.904954969882965,-0.550632655620575
8.53247142846519,-0.570882613054748,31.1860409223223,6.19982149001045,0.436939686536789,0.905138671398163,-0.549483239650726
8.53247142846519,-0.570882613054748,31.1860409223223,6.19982149001045,0.439655363559723,0.90542083978653,-0.548534750938416
8.53247142846519,-0.570882613054748,31.1860409223223,6.19982149001045,0.442391395568848,0.905773103237152,-0.54773998260498
8.53247142846519,-0.570882613054748,31.1860409223223,6.19982149001045,0.445108562707901,0.906157672405243,-0.547039389610291
8.53247142846519,-0.570882613054748,31.1860409223223,6.19982149001045,0.447806835174561,0.906574547290802,-0.546432971954346
8.53247142846519,-0.570882613054748,31.1860409223223,6.19982149001045,0.450486242771149,0.907023727893829,-0.545920670032501
8.53247142846519,-0.570882613054748,31.1860409223223,6.19982149001045,0.45314821600914,0.907475471496582,-0.545501828193665
8.53247142846519,-0.570882613054748,31.1860409223223,6.19982149001045,0.455805838108063,0.907905757427216,-0.545180022716522
8.53247142846519,-0.570882613054748,31.1860409223223,6.19982149001045,0.45847076177597,0.908320426940918,-0.544959604740143
8.53247142846519,-0.570882613054748,31.1860409223223,6.19982149001045,0.461142957210541,0.908719480037689,-0.544840633869171
8.53247142846519,-0.570882613054748,31.1860409223223,6.19982149001045,0.463822424411774,0.909102916717529,-0.544823110103607
8.53247142846519,-0.570882613054748,31.1860409223223,6.19982149001045,0.466472834348679,0.909487426280975,-0.544909179210663
8.54049394420979,-0.426142128479519,31.120335237816,6.13678939102649,0.469060063362122,0.909869432449341,-0.545065402984619
8.59147672556381,-0.300189228032332,31.0753752059811,6.02950959341802,0.471586257219315,0.910228550434113,-0.545256197452545
8.67889765094865,-0.213040590129981,31.0552299098178,5.87672980382775,0.47405144572258,0.910564780235291,-0.545481622219086
8.79277450611719,-0.177426119905951,31.0599660556045,5.68356355346464,0.476455628871918,0.91087818145752,-0.545741617679596
8.92193088554739,-0.195745477638278,31.0881161052103,5.4624294181219,0.478754460811615,0.911120712757111,-0.546085596084595
9.05669077788317,-0.25992175800089,31.1372119263237,5.23409459597469,0.480890542268753,0.911251783370972,-0.54655933380127
9.18878670506712,-0.353040282448601,31.2052523305841,5.02078729411505,0.482850819826126,0.911278605461121,-0.547159194946289
9.31261515419365,-0.453445580179618,31.2899025982375,4.84901438860577,0.484635263681412,0.911201179027557,-0.547885239124298
9.42508347606353,-0.53883836909804,31.3913628481199,4.74058665541978,0.48624387383461,0.911019504070282,-0.548737406730652
9.52368080697041,-0.592216178209487,31.5082989546576,4.71355799045811,0.487638890743256,0.910786628723145,-0.549683034420013
9.60715171506115,-0.604858290893778,31.6397103236703,4.77335499826906,0.488791227340698,0.910546183586121,-0.550677001476288
9.67375084385695,-0.579105839129483,31.7815945784369,4.91601208322118,0.489709615707397,0.910288691520691,-0.551707029342651
9.72206966005915,-0.52645963376134,31.9277480350394,5.1265017250269,0.490394055843353,0.910014152526855,-0.552773118019104
9.75207754337863,-0.466907089056408,32.0693654646912,5.38082163433802,0.490844577550888,0.909722626209259,-0.553875267505646
9.76398883583912,-0.421898826768357,32.1979084637204,5.64912548613897,0.491065502166748,0.909368276596069,-0.555039584636688
9.76013067941233,-0.4117441668113,32.304438390783,5.8992710842591,0.491059750318527,0.908935129642487,-0.55629301071167
9.74503487688528,-0.448470674725152,32.3825514431251,6.10391669039744,0.490825861692429,0.908452987670898,-0.557636260986328
9.72412121942895,-0.533951256092771,32.4311803202877,6.24031230856307,0.490363836288452,0.907921850681305,-0.559069335460663
9.70381996775464,-0.659552986743172,32.4527931545821,6.29906573857626,0.489673674106598,0.907341778278351,-0.560592234134674
9.68952029274423,-0.806810188195366,32.4553946994509,6.27882032929996,0.488727778196335,0.906715631484985,-0.562140285968781
9.6848966290899,-0.952018899166309,32.4491243092544,6.19262080320599,0.4875348508358,0.906029582023621,-0.563646614551544
9.69053076228458,-1.07182632816974,32.44578899532,6.05737312061789,0.486131250858307,0.905266940593719,-0.565109074115753
9.70427927209116,-1.14846913631825,32.4541272801559,5.89885365314,0.484516948461533,0.904427707195282,-0.566527664661407
9.72216152092645,-1.17413379563335,32.4800093162863,5.74033418566212,0.4826919734478,0.903511881828308,-0.567902386188507
9.7392476422451,-1.15320992857486,32.5221009781376,5.60529521863356,0.480664283037186,0.902560174465179,-0.569205641746521
9.75189382164402,-1.10068077980565,32.5744654069066,5.50678147452618,0.478486239910126,0.901661217212677,-0.570360422134399
9.75881400698097,-1.03919680121839,32.6254290038232,5.451263135686,0.476202130317688,0.900862991809845,-0.571317255496979
9.76169231415651,-0.99307650124052,32.6618506319861,5.43738355097595,0.473811954259872,0.900165498256683,-0.572076201438904
9.76539736913779,-0.982541407336945,32.671456336117,5.45689845579383,0.471315741539001,0.899568736553192,-0.572637259960175
9.77632881234704,-1.01739500966794,32.6462413627735,5.49874592548352,0.468667685985565,0.899049460887909,-0.57302725315094
9.80042697986993,-1.09453530836189,32.5842712298736,5.55061174203158,0.465859830379486,0.898531377315521,-0.57330584526062
9.84096824264034,-1.19713541732282,32.4923499778433,5.60456471417514,0.462929934263229,0.897961437702179,-0.573505699634552
9.89804446152557,-1.29871128104313,32.3822846180103,5.6576828240805,0.459877997636795,0.897339642047882,-0.573626816272736
9.96547033812711,-1.36742350461422,32.2730864398003,5.7156013918555,0.456704020500183,0.896665990352631,-0.573669195175171
10.0332024176197,-1.37465174959806,32.1837667326388,5.78374702204843,0.453421831130981,0.895917952060699,-0.57364809513092
10.0889313437844,-1.30181328091473,32.1324696043288,5.87349471265473,0.450040847063065,0.895118832588196,-0.57355260848999
10.1205621024263,-1.1456012496445,32.1300014720173,5.9919407926991,0.446556717157364,0.894314348697662,-0.573356628417969
10.1200415575116,-0.920179504257726,32.1796976496389,6.14075498665793,0.442969471216202,0.893504559993744,-0.573060095310211
10.0854100105378,-0.65627540197317,32.2758881035051,6.31273660772676,0.439279079437256,0.892689406871796,-0.572663068771362
10.0223934555668,-0.394917280715312,32.4044311025343,6.4933799245169,0.435487002134323,0.89187479019165,-0.572121918201447
9.94385241402144,-0.180850025424612,32.5443808752189,6.66170902329361,0.431622296571732,0.891063570976257,-0.57145768404007
9.86834278109709,-0.0525267288491214,32.6731906993629,6.79351289914915,0.427712589502335,0.890252828598022,-0.570735096931458
9.81491037661495,-0.0353194088066154,32.770448453688,6.86906793170608,0.423757880926132,0.889442563056946,-0.569954097270966
9.80048822044813,-0.134085914152632,32.8200112187522,6.87741655408807,0.419758141040802,0.888632774353027,-0.569114744663239
9.83542597031296,-0.333111396481005,32.8152750729655,6.81918491297374,0.41574028134346,0.887822031974792,-0.568212628364563
9.92009106967866,-0.597864159107793,32.7585747360818,6.71002667532933,0.4117231965065,0.886968195438385,-0.567271053791046
10.0457567361513,-0.881521562461552,32.6606499189698,6.57634435943784,0.407698899507523,0.886030614376068,-0.566317617893219
10.1949387846539,-1.133310306757,32.5373767159568,6.45320217930361,0.403667390346527,0.885009229183197,-0.565352320671082
10.3452231635641,-1.3076953750109,32.4078331227473,6.37253361553771,0.399628639221191,0.883904099464417,-0.564375162124634
10.4749000879091,-1.37321780626119,32.2912972538817,6.36032375530406,0.395602315664291,0.88272750377655,-0.563384652137756
10.5654136624931,-1.31796709156688,32.2007101274252,6.42627787212172,0.391653776168823,0.881515085697174,-0.562352478504181
10.6080371049225,-1.15048836264977,32.1428757838039,6.56392578364464,0.387828797101974,0.880290150642395,-0.561251759529114
10.6025866934624,-0.898992259851648,32.1179276355751,6.74759547604825,0.384127408266068,0.879052639007568,-0.5600825548172
10.5598713901658,-0.603570668305563,32.1172605727882,6.93992686417316,0.38054957985878,0.877802550792694,-0.558844804763794
10.497497861266,-0.310519472887782,32.1285339338862,7.09823761609149,0.377120763063431,0.876518130302429,-0.557542145252228
10.4362266627738,-0.0616864077152853,32.1373391626729,7.18297613326861,0.373852580785751,0.875200092792511,-0.55616295337677
