EOG_left_h,EOG_right_h,EOG_left_v,EOG_right_v,head_horizontal,head_frontal,head_sagittal
-378.709455053059,100.121419107118,-81.6688574128928,-79.0182108787386,0.0,0.0,0.0
-378.709455053059,100.121419107118,-81.6688574128928,-79.0182108787386,-0.00109980721026659,0.000931487651541829,-0.00255262386053801
-378.709455053059,100.121419107118,-81.6688574128928,-79.0182108787386,-0.00219597131945193,0.00186009868048131,-0.00509960204362869
-378.709455053059,100.121419107118,-81.6688574128928,-79.0182108787386,-0.00328849558718503,0.00278583588078618,-0.00764094153419137
-378.709455053059,100.121419107118,-81.6688574128928,-79.0182108787386,-0.00437738327309489,0.00370870204642415,-0.0101766474545002
-378.709455053059,100.121419107118,-81.6688574128928,-79.0182108787386,-0.00546263810247183,0.0046286997385323,-0.0127067258581519
-378.709455053059,100.121419107118,-81.6688574128928,-79.0182108787386,-0.0065442631021142,0.00554583221673965,-0.0152311827987432
-378.709455053059,100.121419107118,-81.6688574128928,-79.0182108787386,-0.00762226153165102,0.00646010180935264,-0.0177500247955322
-378.709455053059,100.121419107118,-81.6688574128928,-79.0182108787386,-0.00869663618505001,0.00737151131033897,-0.0202632565051317
-378.709455053059,100.121419107118,-81.6688574128928,-79.0182108787386,-0.00976739078760147,0.00828006397932768,-0.0227708835154772
-378.709455053059,100.121419107118,-81.6688574128928,-79.0182108787386,-0.0108345290645957,0.00918576214462519,-0.0252729132771492
-378.709455053059,100.121419107118,-81.6688574128928,-79.0182108787386,-0.0118980538100004,0.0100886086001992,-0.0277693495154381
-378.709455053059,100.121419107118,-81.6688574128928,-79.0182108787386,-0.0129579687491059,0.0109886061400175,-0.0302601996809244
-378.709455053059,100.121419107118,-81.6688574128928,-79.0182108787386,-0.01401427667588,0.0118857575580478,-0.0327454693615437
-378.709455053059,100.121419107118,-81.6688574128928,-79.0182108787386,-0.0150669813156128,0.0127800647169352,-0.0352251641452312
-378.709455053059,100.121419107118,-81.6688574128928,-79.0182108787386,-0.0161160845309496,0.01367153134197,-0.0376992896199226
-378.709455053059,100.121419107118,-81.6688574128928,-79.0182108787386,-0.0171615909785032,0.0145601602271199,-0.0401678532361984
-378.709455053059,100.121419107118,-81.6688574128928,-79.0182108787386,-0.018203504383564,0.0154459541663527,-0.0426308587193489
-378.709455053059,100.121419107118,-81.6688574128928,-79.0182108787386,-0.019241826608777,0.0163289159536362,-0.0450883097946644
-378.709455053059,100.121419107118,-81.6688574128928,-79.0182108787386,-0.0202765632420778,0.0172090474516153,-0.0475402176380157
-378.709455053059,100.121419107118,-81.6688574128928,-79.0182108787386,-0.0213077142834663,0.018086351454258,-0.0499865859746933
-378.709455053059,100.121419107118,-81.6688574128928,-79.0182108787386,-0.022335285320878,0.0189608316868544,-0.0524274185299873
-378.709455053059,100.121419107118,-81.6688574128928,-79.0182108787386,-0.0233592800796032,0.0198324918746948,-0.0548627227544785
-378.709455053059,100.121419107118,-81.6688574128928,-79.0182108787386,-0.024379700422287,0.0207013320177794,-0.0572925060987473
-378.709455053059,100.121419107118,-81.6688574128928,-79.0182108787386,-0.0253965500742197,0.0215673558413982,-0.059716772288084
-378.709455053059,100.121419107118,-81.6688574128928,-79.0182108787386,-0.0264098327606916,0.0224305670708418,-0.0621355250477791
-378.709455053059,100.121419107118,-81.6688574128928,-79.0182108787386,-0.027419550344348,0.0232909675687552,-0.0645487755537033
-378.709455053059,100.121419107118,-81.6688574128928,-79.0182108787386,-0.0284257065504789,0.0241485610604286,-0.066956527531147
-378.709455053059,100.121419107118,-81.6688574128928,-79.0182108787386,-0.0294283051043749,0.0250033494085073,-0.0693587809801102
-378.709455053059,100.121419107118,-81.6688574128928,-79.0182108787386,-0.0304273497313261,0.0258553363382816,-0.071755550801754
-378.709455053059,100.121419107118,-81.6688574128928,-79.0182108787386,-0.0314228422939777,0.0267045237123966,-0.0741468369960785
-378.709455053059,100.121419107118,-81.6688574128928,-79.0182108787386,-0.0324147865176201,0.0275509133934975,-0.0765326470136642
-378.709455053059,100.121419107118,-81.6688574128928,-79.0182108787386,-0.0334031879901886,0.0283945091068745,-0.0789129883050919
-378.709455053059,100.121419107118,-81.6688574128928,-79.0182108787386,-0.0343880467116833,0.0292353127151728,-0.0812878608703613
-378.709455053059,100.121419107118,-81.6688574128928,-79.0182108787386,-0.0353693664073944,0.0300733279436827,-0.0836572721600533
-378.709455053059,100.121419107118,-81.6688574128928,-79.0182108787386,-0.0363471545279026,0.0309085585176945,-0.0860212296247482
-378.709455053059,100.121419107118,-81.6688574128928,-79.0182108787386,-0.0373214110732079,0.0317410044372082,-0.0883797407150269
-378.709455053059,100.121419107118,-81.6688574128928,-79.0182108787386,-0.0382921360433102,0.0325706712901592,-0.0907328128814697
-378.709455053059,100.121419107118,-81.6688574128928,-79.0182108787386,-0.0392593368887901,0.0333975590765476,-0.0930804461240768
-378.709455053059,100.121419107118,-81.6688574128928,-79.0182108787386,-0.040223017334938,0.0342216715216637,-0.0954226478934288
-378.709455053059,100.121419107118,-81.6688574128928,-79.0182108787386,-0.0411831773817539,0.0350430123507977,-0.0977594256401062
-378.709455053059,100.121419107118,-81.6688574128928,-79.0182108787386,-0.0421398244798183,0.0358615852892399,-0.10009078681469
-378.709455053059,100.121419107118,-81.6688574128928,-79.0182108787386,-0.0430929586291313,0.0366773903369904,-0.102416731417179
-378.709455053059,100.121419107118,-81.6688574128928,-79.0182108787386,-0.0440425835549831,0.0374904312193394,-0.104737274348736
-378.709455053059,100.121419107118,-81.6688574128928,-79.0182108787386,-0.0449887029826641,0.0383007116615772,-0.10705241560936
-378.709455053059,100.121419107118,-81.6688574128928,-79.0182108787386,-0.0459313206374645,0.0391082316637039,-0.109362155199051
-378.709455053059,100.121419107118,-81.6688574128928,-79.0182108787386,-0.0468704365193844,0.0399129949510098,-0.11166650801897
-378.709455053059,100.121419107118,-81.6688574128928,-79.0182108787386,-0.0478060580790043,0.040715005248785,-0.113965474069119
-378.709455053059,100.121419107118,-81.6688574128928,-79.0182108787386,-0.0487381853163242,0.04151426628232,-0.116259060800076
-378.709455053059,100.121419107118,-81.6688574128928,-79.0182108787386,-0.0496668256819248,0.0423107780516148,-0.118547275662422
-378.709455053059,100.121419107118,-81.6688574128928,-79.0182108787386,-0.050591979175806,0.0431045442819595,-0.120830126106739
-378.709455053059,100.121419107118,-81.6688574128928,-79.0182108787386,-0.0515136495232582,0.0438955686986446,-0.123107612133026
-378.709455053059,100.121419107118,-81.6688574128928,-79.0182108787386,-0.0524318404495716,0.0446838550269604,-0.125379741191864
-378.709455053059,100.121419107118,-81.6688574128928,-79.0182108787386,-0.0533465519547462,0.0454694032669067,-0.127646520733833
-378.709455053059,100.121419107118,-81.6688574128928,-79.0182108787386,-0.0542577914893627,0.046252217143774,-0.129907950758934
-378.709455053059,100.121419107118,-81.6688574128928,-79.0182108787386,-0.055165559053421,0.0470323003828526,-0.132164046168327
-378.709455053059,100.121419107118,-81.6688574128928,-79.0182108787386,-0.0560698620975018,0.0478096529841423,-0.134414806962013
-378.709455053059,100.121419107118,-81.6688574128928,-79.0182108787386,-0.0569707006216049,0.0485842786729336,-0.136660248041153
-378.709455053059,100.121419107118,-81.6688574128928,-79.0182108787386,-0.0578680783510208,0.0493561811745167,-0.138900354504585
-378.709455053059,100.121419107118,-81.6688574128928,-79.0182108787386,-0.0587619990110397,0.0501253642141819,-0.141135156154633
-378.709455053059,100.121419107118,-81.6688574128928,-79.0182108787386,-0.059652466326952,0.0508918277919292,-0.143364638090134
-378.709455053059,100.121419107118,-81.6688574128928,-79.0182108787386,-0.0605394802987576,0.051655575633049,-0.14558881521225
-378.709455053059,100.121419107118,-81.6688574128928,-79.0182108787386,-0.061423048377037,0.0524166114628315,-0.147807702422142
-378.709455053059,100.121419107118,-81.6688574128928,-79.0182108787386,-0.0623031705617905,0.053174939006567,-0.150021284818649
-378.709455053059,100.121419107118,-81.6688574128928,-79.0182108787386,-0.0631798505783081,0.0539305582642555,-0.152229577302933
-378.709455053059,100.121419107118,-81.6688574128928,-79.0182108787386,-0.0640530958771706,0.0546834729611874,-0.154432594776154
-378.709455053059,100.121419107118,-81.6688574128928,-79.0182108787386,-0.0649229064583778,0.0554336830973625,-0.156630337238312
-378.709455053059,100.121419107118,-81.6688574128928,-79.0182108787386,-0.0657892823219299,0.0561811961233616,-0.158822804689407
-378.709455053059,100.121419107118,-81.6688574128928,-79.0182108787386,-0.0666522309184074,0.0569260120391846,-0.161010012030602
-378.709455053059,100.121419107118,-81.6688574128928,-79.0182108787386,-0.0675117522478104,0.0576681345701218,-0.163191959261894
-378.709455053059,100.121419107118,-81.6688574128928,-79.0182108787386,-0.0683678537607193,0.0584075637161732,-0.165368646383286
-378.709455053059,100.121419107118,-81.6688574128928,-79.0182108787386,-0.0692205354571342,0.0591443069279194,-0.167540088295937
-378.709455053059,100.121419107118,-81.6688574128928,-79.0182108787386,-0.0700698047876358,0.0598783642053604,-0.169706284999847
-378.709455053059,100.121419107118,-81.6688574128928,-79.0182108787386,-0.070915661752224,0.0606097355484962,-0.171867251396179
-378.709455053059,100.121419107118,-81.6688574128928,-79.0182108787386,-0.0717581063508987,0.0613384284079075,-0.174022972583771
-378.709455053059,100.121419107118,-81.6688574128928,-79.0182108787386,-0.0725971460342407,0.0620644427835941,-0.176173478364944
-378.709455053059,100.121419107118,-81.6688574128928,-79.0182108787386,-0.0734327808022499,0.0627877786755562,-0.178318753838539
-378.709455053059,100.121419107118,-81.6688574128928,-79.0182108787386,-0.0742650181055069,0.0635084435343742,-0.180458813905716
-378.709455053059,100.121419107118,-81.6688574128928,-79.0182108787386,-0.0750938579440117,0.0642264410853386,-0.182593673467636
-378.709455053059,100.121419107118,-81.6688574128928,-79.0182108787386,-0.0759193003177643,0.0649417713284492,-0.1847233325243
-378.709455053059,100.121419107118,-81.6688574128928,-79.0182108787386,-0.0767413526773453,0.0656544342637062,-0.186847791075706
-378.709455053059,100.121419107118,-81.6688574128928,-79.0182108787386,-0.0775600224733353,0.0663644373416901,-0.188967049121857
-378.709455053059,100.121419107118,-81.6688574128928,-79.0182108787386,-0.0783753097057343,0.0670717805624008,-0.191081121563911
-378.709455053059,100.121419107118,-81.6688574128928,-79.0182108787386,-0.0791872143745422,0.0677764639258385,-0.193190008401871
-378.709455053059,100.121419107118,-81.6688574128928,-79.0182108787386,-0.0799957439303398,0.0684784948825836,-0.195293724536896
-378.709455053059,100.121419107118,-81.6688574128928,-79.0182108787386,-0.080800898373127,0.0691778734326363,-0.197392269968987
-378.709455053059,100.121419107118,-81.6688574128928,-79.0182108787386,-0.0816026777029037,0.069874607026577,-0.199485659599304
-378.709455053059,100.121419107118,-81.6688574128928,-79.0182108787386,-0.0824010893702507,0.0705686882138252,-0.201573878526688
-378.709455053059,100.121419107118,-81.6688574128928,-79.0182108787386,-0.0831961408257484,0.0712601318955421,-0.203656956553459
-378.709455053059,100.121419107118,-81.6688574128928,-79.0182108787386,-0.0839878246188164,0.0719489306211472,-0.205734878778458
-378.709455053059,100.121419107118,-81.6688574128928,-79.0182108787386,-0.0847761556506157,0.0726350918412209,-0.207807660102844
-378.709455053059,100.121419107118,-81.6688574128928,-79.0182108787386,-0.0855611264705658,0.0733186155557632,-0.209875300526619
-378.709455053059,100.121419107118,-81.6688574128928,-79.0182108787386,-0.0863427445292473,0.0739995092153549,-0.211937814950943
-378.709455053059,100.121419107118,-81.6688574128928,-79.0182108787386,-0.0871210172772408,0.0746777728199959,-0.213995203375816
-378.709455053059,100.121419107118,-81.6688574128928,-79.0182108787386,-0.0878959447145462,0.0753534063696861,-0.216047465801239
-378.709455053059,100.121419107118,-81.6688574128928,-79.0182108787386,-0.0886675268411636,0.0760264173150063,-0.218094617128372
-378.709455053059,100.121419107118,-81.6688574128928,-79.0182108787386,-0.0894357711076736,0.0766968056559563,-0.220136657357216
-378.709455053059,100.121419107118,-81.6688574128928,-79.0182108787386,-0.0902006775140762,0.0773645713925362,-0.222173601388931
-378.709455053059,100.121419107118,-81.6688574128928,-79.0182108787386,-0.0909622460603714,0.0780297219753265,-0.224205449223518
-378.709455053059,100.121419107118,-81.6688574128928,-79.0182108787386,-0.0917204916477203,0.0786922574043274,-0.226232200860977
-378.709455053059,100.121419107118,-81.6688574128928,-79.0182108787386,-0.0924754068255425,0.0793521851301193,-0.228253871202469
-378.709455053059,100.121419107118,-81.6688574128928,-79.0182108787386,-0.0932269990444183,0.0800094977021217,-0.230270460247993
-378.709455053059,100.121419107118,-81.6688574128928,-79.0182108787386,-0.093975268304348,0.0806642025709152,-0.232281967997551
-378.709455053059,100.121419107118,-81.6688574128928,-79.0182108787386,-0.094720222055912,0.0813163071870804,-0.234288409352303
-378.709455053059,100.121419107118,-81.6688574128928,-79.0182108787386,-0.0954618602991104,0.0819658115506172,-0.236289784312248
-378.709455053059,100.121419107118,-81.6688574128928,-79.0182108787386,-0.0962001830339432,0.0826127156615257,-0.238286092877388
-378.709455053059,100.121419107118,-81.6688574128928,-79.0182108787386,-0.0969351977109909,0.0832570269703865,-0.240277349948883
-378.709455053059,100.121419107118,-81.6688574128928,-79.0182108787386,-0.0976669117808342,0.083898738026619,-0.242263555526733
-378.709455053059,100.121419107118,-81.6688574128928,-79.0182108787386,-0.0983953252434731,0.0845378637313843,-0.2442447245121
-378.709455053059,100.121419107118,-81.6688574128928,-79.0182108787386,-0.0991204380989075,0.0851743966341019,-0.246220856904984
-378.709455053059,100.121419107118,-81.6688574128928,-79.0182108787386,-0.099842257797718,0.0858083441853523,-0.248191952705383
-378.709455053059,100.121419107118,-81.6688574128928,-79.0182108787386,-0.100560784339905,0.0864397138357162,-0.2501580119133
-378.709455053059,100.121419107118,-81.6688574128928,-79.0182108787386,-0.101276017725468,0.087068498134613,-0.252119064331055
-378.709455053059,100.121419107118,-81.6688574128928,-79.0182108787386,-0.101987965404987,0.0876947045326233,-0.254075109958649
-378.709455053059,100.121419107118,-81.6688574128928,-79.0182108787386,-0.102696627378464,0.0883183404803276,-0.256026148796082
-378.709455053059,100.121419107118,-81.6688574128928,-79.0182108787386,-0.103402011096478,0.0889393985271454,-0.257972180843353
-378.709455053059,100.121419107118,-81.6688574128928,-79.0182108787386,-0.104104116559029,0.0895578861236572,-0.259913206100464
-378.709455053059,100.121419107118,-81.6688574128928,-79.0182108787386,-0.104802951216698,0.0901738107204437,-0.261849224567413
-378.709455053059,100.121419107118,-81.6688574128928,-79.0182108787386,-0.105498515069485,0.0907871723175049,-0.263780266046524
-378.709455053059,100.121419107118,-81.6688574128928,-79.0182108787386,-0.10619080811739,0.0913979709148407,-0.265706330537796
-378.709455053059,100.121419107118,-81.6688574128928,-79.0182108787386,-0.106879837810993,0.0920062065124512,-0.267627418041229
-378.709455053059,100.121419107118,-81.6688574128928,-79.0182108787386,-0.107565604150295,0.0926118865609169,-0.269543528556824
-378.709455053059,100.121419107118,-81.6688574128928,-79.0182108787386,-0.108248114585876,0.0932150110602379,-0.271454662084579
-378.709455053059,100.121419107118,-81.6688574128928,-79.0182108787386,-0.108927369117737,0.0938155874609947,-0.273360848426819
-378.709455053059,100.121419107118,-81.6688574128928,-79.0182108787386,-0.109603375196457,0.0944136083126068,-0.275262087583542
-378.709455053059,100.121419107118,-81.6688574128928,-79.0182108787386,-0.110276132822037,0.0950090885162354,-0.277158379554749
-378.709455053059,100.121419107118,-81.6688574128928,-79.0182108787386,-0.110945641994476,0.0956020206212997,-0.279049724340439
-378.709455053059,100.121419107118,-81.6688574128928,-79.0182108787386,-0.111611910164356,0.0961924120783806,-0.280936121940613
-378.709455053059,100.121419107118,-81.6688574128928,-79.0182108787386,-0.112274937331676,0.0967802628874779,-0.28281757235527
-378.709455053059,100.121419107118,-81.6688574128928,-79.0182108787386,-0.112934723496437,0.0973655804991722,-0.284694105386734
-378.709455053059,100.121419107118,-81.6688574128928,-79.0182108787386,-0.113591276109219,0.0979483649134636,-0.286565721035004
-378.709455053059,100.121419107118,-81.6688574128928,-79.0182108787386,-0.114244602620602,0.098528616130352,-0.288432419300079
-378.709455053059,100.121419107118,-81.6688574128928,-79.0182108787386,-0.114894703030586,0.0991063416004181,-0.290294200181961
-378.709455053059,100.121419107118,-81.6688574128928,-79.0182108787386,-0.115541577339172,0.0996815413236618,-0.292151093482971
-378.709455053059,100.121419107118,-81.6688574128928,-79.0182108787386,-0.11618522554636,0.100254215300083,-0.294003069400787
-378.709455053059,100.121419107118,-81.6688574128928,-79.0182108787386,-0.11682566255331,0.100824370980263,-0.295850157737732
-378.709455053059,100.121419107118,-81.6688574128928,-79.0182108787386,-0.117462880909443,0.101392008364201,-0.297692358493805
-378.709455053059,100.121419107118,-81.6688574128928,-79.0182108787386,-0.118096888065338,0.101957127451897,-0.299529671669006
-378.709455053059,100.121419107118,-81.6688574128928,-79.0182108787386,-0.118727684020996,0.102519735693932,-0.301362097263336
-378.709455053059,100.121419107118,-81.6688574128928,-79.0182108787386,-0.119355276226997,0.103079833090305,-0.303189665079117
-378.709455053059,100.121419107118,-81.6688574128928,-79.0182108787386,-0.119979664683342,0.103637419641018,-0.305012345314026
-378.709455053059,100.121419107118,-81.6688574128928,-79.0182108787386,-0.120600856840611,0.10419250279665,-0.306830167770386
-378.709455053059,100.121419107118,-81.6688574128928,-79.0182108787386,-0.121218852698803,0.104745082557201,-0.308643132448196
-378.709455053059,100.121419107118,-81.6688574128928,-79.0182108787386,-0.121833652257919,0.105295158922672,-0.310451239347458
-378.709455053059,100.121419107118,-81.6688574128928,-79.0182108787386,-0.12244526296854,0.105842739343643,-0.312254518270493
-378.709455053059,100.121419107118,-81.6688574128928,-79.0182108787386,-0.123053684830666,0.106387823820114,-0.314052939414978
-378.709455053059,100.121419107118,-81.6688574128928,-79.0182108787386,-0.123658925294876,0.106930419802666,-0.315846532583237
-378.709455053059,100.121419107118,-81.6688574128928,-79.0182108787386,-0.124260984361172,0.107470527291298,-0.317635297775269
-378.709455053059,100.121419107118,-81.6688574128928,-79.0182108787386,-0.124859862029552,0.108008146286011,-0.319419234991074
-378.709455053059,100.121419107118,-81.6688574128928,-79.0182108787386,-0.125455558300018,0.108543276786804,-0.321198344230652
-378.709455053059,100.121419107118,-81.6688574128928,-79.0182108787386,-0.12604808807373,0.109075926244259,-0.322972655296326
-378.709455053059,100.121419107118,-81.6688574128928,-79.0182108787386,-0.126637443900108,0.109606094658375,-0.324742138385773
-378.709455053059,100.121419107118,-81.6688574128928,-79.0182108787386,-0.127223640680313,0.110133789479733,-0.326506823301315
-378.709455053059,100.121419107118,-81.6688574128928,-79.0182108787386,-0.127806678414345,0.110659010708332,-0.328266710042953
-378.709455053059,100.121419107118,-81.6688574128928,-79.0182108787386,-0.128386557102203,0.111181758344173,-0.330021798610687
-378.709455053059,100.121419107118,-81.6688574128928,-79.0182108787386,-0.128963276743889,0.111702032387257,-0.331772118806839
-378.709455053059,100.121419107118,-81.6688574128928,-79.0182108787386,-0.129536837339401,0.112219840288162,-0.333517640829086
-378.709455053059,100.121419107118,-81.6688574128928,-79.0182108787386,-0.130107253789902,0.112735189497471,-0.335258394479752
-378.709455053059,100.121419107118,-81.6688574128928,-79.0182108787386,-0.130674511194229,0.113248072564602,-0.336994379758835
-378.709455053059,100.121419107118,-81.6688574128928,-79.0182108787386,-0.131238624453545,0.113758496940136,-0.338725596666336
-378.709455053059,100.121419107118,-81.6688574128928,-79.0182108787386,-0.131799608469009,0.114266462624073,-0.340452045202255
-378.709455053059,100.121419107118,-81.6688574128928,-79.0182108787386,-0.132357448339462,0.114771977066994,-0.342173725366592
-378.709455053059,100.121419107118,-81.6688574128928,-79.0182108787386,-0.132912158966064,0.115275040268898,-0.34389066696167
-378.709455053059,100.121419107118,-81.6688574128928,-79.0182108787386,-0.133463725447655,0.115775652229786,-0.345602869987488
-378.709455053059,100.121419107118,-81.6688574128928,-79.0182108787386,-0.134012162685394,0.116273820400238,-0.347310334444046
-378.709455053059,100.121419107118,-81.6688574128928,-79.0182108787386,-0.134557485580444,0.116769544780254,-0.349013060331345
-378.709455053059,100.121419107118,-81.6688574128928,-79.0182108787386,-0.135099679231644,0.117262825369835,-0.350711047649384
-378.709455053059,100.121419107118,-81.6688574128928,-79.0182108787386,-0.135638758540154,0.11775366961956,-0.352404326200485
-378.709455053059,100.121419107118,-81.6688574128928,-79.0182108787386,-0.136174708604813,0.11824207752943,-0.354092866182327
-378.709455053059,100.121419107118,-81.6688574128928,-79.0182108787386,-0.136707544326782,0.118728049099445,-0.355776697397232
-378.709455053059,100.121419107118,-81.6688574128928,-79.0182108787386,-0.137237280607224,0.119211591780186,-0.3574558198452
-378.709455053059,100.121419107118,-81.6688574128928,-79.0182108787386,-0.137763902544975,0.119692705571651,-0.35913023352623
-378.709455053059,100.121419107118,-81.6688574128928,-79.0182108787386,-0.138287425041199,0.120171390473843,-0.360799968242645
-378.709455053059,100.121419107118,-81.6688574128928,-79.0182108787386,-0.138807833194733,0.12064765393734,-0.362464994192123
-378.709455053059,100.121419107118,-81.6688574128928,-79.0182108787386,-0.139325141906738,0.121121495962143,-0.364125341176987
-378.709455053059,100.121419107118,-81.6688574128928,-79.0182108787386,-0.139839366078377,0.121592916548252,-0.365781009197235
-378.709455053059,100.121419107118,-81.6688574128928,-79.0182108787386,-0.140350490808487,0.122061923146248,-0.367431998252869
-378.709455053059,100.121419107118,-81.6688574128928,-79.0182108787386,-0.14085853099823,0.12252851575613,-0.369078308343887
-378.709455053059,100.121419107118,-81.6688574128928,-79.0182108787386,-0.141363486647606,0.122992694377899,-0.370719969272614
-378.709455053059,100.121419107118,-81.6688574128928,-79.0182108787386,-0.141865357756615,0.123454466462135,-0.372356981039047
-378.709455053059,100.121419107118,-81.6688574128928,-79.0182108787386,-0.142364144325256,0.123913832008839,-0.373989313840866
-378.709455053059,100.121419107118,-81.6688574128928,-79.0182108787386,-0.142859846353531,0.124370791018009,-0.375616997480392
-378.709455053059,100.121419107118,-81.6688574128928,-79.0182108787386,-0.143352478742599,0.124825350940228,-0.377240031957626
-378.709455053059,100.121419107118,-81.6688574128928,-79.0182108787386,-0.143842041492462,0.125277504324913,-0.37885844707489
-378.709455053059,100.121419107118,-81.6688574128928,-79.0182108787386,-0.144328534603119,0.125727266073227,-0.380472213029861
-378.709455053059,100.121419107118,-81.6688574128928,-79.0182108787386,-0.14481195807457,0.12617464363575,-0.382081359624863
-378.709455053059,100.121419107118,-81.6688574128928,-79.0182108787386,-0.145292311906815,0.12661962211132,-0.383685886859894
-378.709455053059,100.121419107118,-81.6688574128928,-79.0182108787386,-0.145769611001015,0.1270622164011,-0.385285794734955
-378.709455053059,100.121419107118,-81.6688574128928,-79.0182108787386,-0.14624385535717,0.127502426505089,-0.386881083250046
-378.709455053059,100.121419107118,-81.6688574128928,-79.0182108787386,-0.146715044975281,0.127940252423286,-0.388471752405167
-378.709455053059,100.121419107118,-81.6688574128928,-79.0182108787386,-0.147183179855347,0.128375694155693,-0.39005783200264
-378.709455053059,100.121419107118,-81.6688574128928,-79.0182108787386,-0.147648274898529,0.128808751702309,-0.391639322042465
-378.709455053059,100.121419107118,-81.6688574128928,-79.0182108787386,-0.148110315203667,0.129239439964294,-0.393216222524643
-378.709455053059,100.121419107118,-81.6688574128928,-79.0182108787386,-0.148569315671921,0.129667744040489,-0.394788533449173
-378.709455053059,100.121419107118,-81.6688574128928,-79.0182108787386,-0.149025276303291,0.130093678832054,-0.396356254816055
-378.709455053059,100.121419107118,-81.6688574128928,-79.0182108787386,-0.14947821199894,0.130517244338989,-0.39791938662529
-378.709455053059,100.121419107118,-81.6688574128928,-79.0182108787386,-0.149928107857704,0.130938455462456,-0.399477958679199
-378.709455053059,100.121419107118,-81.6688574128928,-79.0182108787386,-0.150374978780746,0.131357297301292,-0.401031970977783
-378.709455053059,100.121419107118,-81.6688574128928,-79.0182108787386,-0.150818809866905,0.131773769855499,-0.402581423521042
-378.709455053059,100.121419107118,-81.6688574128928,-79.0182108787386,-0.151259630918503,0.132187888026237,-0.404126316308975
-378.709455053059,100.121419107118,-81.6688574128928,-79.0182108787386,-0.151697427034378,0.132599651813507,-0.405666649341583
-378.709455053059,100.121419107118,-81.6688574128928,-79.0182108787386,-0.152132198214531,0.133009061217308,-0.407202452421188
-378.709455053059,100.121419107118,-81.6688574128928,-79.0182108787386,-0.152563959360123,0.13341611623764,-0.408733695745468
-378.709455053059,100.121419107118,-81.6688574128928,-79.0182108787386,-0.152992710471153,0.133820831775665,-0.410260409116745
-378.709455053059,100.121419107118,-81.6688574128928,-79.0182108787386,-0.153418451547623,0.134223192930222,-0.411782592535019
-378.709455053059,100.121419107118,-81.6688574128928,-79.0182108787386,-0.153841182589531,0.13462321460247,-0.41330024600029
-378.709455053059,100.121419107118,-81.6688574128928,-79.0182108787386,-0.154260918498039,0.135020896792412,-0.41481339931488
-378.709455053059,100.121419107118,-81.6688574128928,-79.0182108787386,-0.154677644371986,0.135416239500046,-0.416322022676468
-378.709455053059,100.121419107118,-81.6688574128928,-79.0182108787386,-0.155091375112534,0.135809242725372,-0.417826145887375
-378.709455053059,100.121419107118,-81.6688574128928,-79.0182108787386,-0.155502110719681,0.136199906468391,-0.419325768947601
-378.709455053059,100.121419107118,-81.6688574128928,-79.0182108787386,-0.155909851193428,0.136588245630264,-0.420820891857147
-378.709455053059,100.121419107118,-81.6688574128928,-79.0182108787386,-0.156314611434937,0.136974260210991,-0.422311514616013
-378.709455053059,100.121419107118,-81.6688574128928,-79.0182108787386,-0.156716376543045,0.137357950210571,-0.42379766702652
-378.709455053059,100.121419107118,-81.6688574128928,-79.0182108787386,-0.157115161418915,0.137739315629005,-0.425279319286346
-378.709455053059,100.121419107118,-81.6688574128928,-79.0182108787386,-0.157510966062546,0.138118356466293,-0.426756501197815
-378.709455053059,100.121419107118,-81.6688574128928,-79.0182108787386,-0.157903805375099,0.138495072722435,-0.428229212760925
-378.709455053059,100.121419107118,-81.6688574128928,-79.0182108787386,-0.158293664455414,0.138869479298592,-0.429697453975677
-378.709455053059,100.121419107118,-81.6688574128928,-79.0182108787386,-0.158680558204651,0.139241561293602,-0.431161224842072
-378.709455053059,100.121419107118,-81.6688574128928,-79.0182108787386,-0.159064471721649,0.139611333608627,-0.43262055516243
-378.709455053059,100.121419107118,-81.6688574128928,-79.0182108787386,-0.15944541990757,0.139978796243668,-0.43407541513443
-378.709455053059,100.121419107118,-81.6688574128928,-79.0182108787386,-0.159823417663574,0.140343949198723,-0.435525834560394
-378.709455053059,100.121419107118,-81.6688574128928,-79.0182108787386,-0.160198450088501,0.140706807374954,-0.436971813440323
-378.709455053059,100.121419107118,-81.6688574128928,-79.0182108787386,-0.160570532083511,0.141067355871201,-0.438413351774216
-378.709455053059,100.121419107118,-81.6688574128928,-79.0182108787386,-0.160939663648605,0.141425609588623,-0.439850449562073
-378.709455053059,100.121419107118,-81.6688574128928,-79.0182108787386,-0.161305844783783,0.141781568527222,-0.441283136606216
-378.709455053059,100.121419107118,-81.6688574128928,-79.0182108787386,-0.161669075489044,0.142135232686996,-0.442711383104324
-378.709455053059,100.121419107118,-81.6688574128928,-79.0182108787386,-0.162029355764389,0.142486602067947,-0.444135218858719
-378.709455053059,100.121419107118,-81.6688574128928,-79.0182108787386,-0.162386700510979,0.142835676670074,-0.4455546438694
-378.709455053059,100.121419107118,-81.6688574128928,-79.0182108787386,-0.162741109728813,0.143182471394539,-0.446969658136368
-378.709455053059,100.121419107118,-81.6688574128928,-79.0182108787386,-0.163092583417892,0.143526971340179,-0.448380291461945
-378.709455053059,100.121419107118,-81.6688574128928,-79.0182108787386,-0.163441121578217,0.143869191408157,-0.449786514043808
-378.709455053059,100.121419107118,-81.6688574128928,-79.0182108787386,-0.163786724209785,0.144209131598473,-0.45118835568428
-378.709455053059,100.121419107118,-81.6688574128928,-79.0182108787386,-0.16412940621376,0.144546791911125,-0.452585816383362
-378.709455053059,100.121419107118,-81.6688574128928,-79.0182108787386,-0.164469167590141,0.144882187247276,-0.453978896141052
-378.709455053059,100.121419107118,-81.6688574128928,-79.0182108787386,-0.164806008338928,0.145215302705765,-0.455367594957352
-378.709455053059,100.121419107118,-81.6688574128928,-79.0182108787386,-0.165139928460121,0.145546153187752,-0.45675191283226
-378.709455053059,100.121419107118,-81.6688574128928,-79.0182108787386,-0.16547092795372,0.145874738693237,-0.4581318795681
-378.709455053059,100.121419107118,-81.6688574128928,-79.0182108787386,-0.165799021720886,0.146201059222221,-0.459507465362549
-378.709455053059,100.121419107118,-81.6688574128928,-79.0182108787386,-0.166124194860458,0.146525114774704,-0.460878700017929
-378.709455053059,100.121419107118,-81.6688574128928,-79.0182108787386,-0.166446462273598,0.146846905350685,-0.462245583534241
-378.709455053059,100.121419107118,-81.6688574128928,-79.0182108787386,-0.166765838861465,0.147166445851326,-0.463608115911484
-378.709455053059,100.121419107118,-81.6688574128928,-79.0182108787386,-0.1670823097229,0.147483721375465,-0.464966326951981
-378.709455053059,100.121419107118,-81.6688574128928,-79.0182108787386,-0.167395889759064,0.147798746824265,-0.466320186853409
-378.709455053059,100.121419107118,-81.6688574128928,-79.0182108787386,-0.167706564068794,0.148111522197723,-0.467669725418091
-378.709455053059,100.121419107118,-81.6688574128928,-79.0182108787386,-0.168014347553253,0.148422047495842,-0.469014942646027
-378.709455053059,100.121419107118,-81.6688574128928,-79.0182108787386,-0.16831924021244,0.14873032271862,-0.470355838537216
-378.709455053059,100.121419107118,-81.6688574128928,-79.0182108787386,-0.168621256947517,0.14903636276722,-0.47169241309166
-378.709455053059,100.121419107118,-81.6688574128928,-79.0182108787386,-0.168920382857323,0.149340152740479,-0.473024696111679
-378.709455053059,100.121419107118,-81.6688574128928,-79.0182108787386,-0.169216632843018,0.149641707539558,-0.474352657794952
-378.709455053059,100.121419107118,-81.6688574128928,-79.0182108787386,-0.169510006904602,0.149941027164459,-0.475676327943802
-378.709455053059,100.121419107118,-81.6688574128928,-79.0182108787386,-0.169800505042076,0.150238111615181,-0.476995706558228
-378.709455053059,100.121419107118,-81.6688574128928,-79.0182108787386,-0.17008812725544,0.150532960891724,-0.478310793638229
-378.709455053059,100.121419107118,-81.6688574128928,-79.0182108787386,-0.170372888445854,0.150825589895248,-0.479621589183807
-378.709455053059,100.121419107118,-81.6688574128928,-79.0182108787386,-0.170654773712158,0.151115983724594,-0.480928122997284
-378.709455053059,100.121419107118,-81.6688574128928,-79.0182108787386,-0.170933797955513,0.151404157280922,-0.482230365276337
-378.709455053059,100.121419107118,-81.6688574128928,-79.0182108787386,-0.171209961175919,0.151690110564232,-0.483528345823288
-378.709455053059,100.121419107118,-81.6688574128928,-79.0182108787386,-0.171483278274536,0.151973843574524,-0.484822064638138
-378.709455053059,100.121419107118,-81.6688574128928,-79.0182108787386,-0.171753734350204,0.152255356311798,-0.486111521720886
-378.709455053059,100.121419107118,-81.6688574128928,-79.0182108787386,-0.172021344304085,0.152534663677216,-0.487396717071533
-378.709455053059,100.121419107118,-81.6688574128928,-79.0182108787386,-0.172286108136177,0.152811750769615,-0.488677650690079
-378.709455053059,100.121419107118,-81.6688574128928,-79.0182108787386,-0.172548025846481,0.153086632490158,-0.489954352378845
-378.709455053059,100.121419107118,-81.6688574128928,-79.0182108787386,-0.172807097434998,0.153359308838844,-0.491226822137833
-378.709455053059,100.121419107118,-81.6688574128928,-79.0182108787386,-0.173063322901726,0.153629779815674,-0.492495059967041
-378.709455053059,100.121419107118,-81.6688574128928,-79.0182108787386,-0.173316717147827,0.153898045420647,-0.49375906586647
-378.709455053059,100.121419107118,-81.6688574128928,-79.0182108787386,-0.173567280173302,0.154164105653763,-0.495018839836121
-378.709455053059,100.121419107118,-81.6688574128928,-79.0182108787386,-0.173815011978149,0.154427975416183,-0.496274381875992
-378.709455053059,100.121419107118,-81.6688574128928,-79.0182108787386,-0.17405991256237,0.154689654707909,-0.497525721788406
-378.709455053059,100.121419107118,-81.6688574128928,-79.0182108787386,-0.174301981925964,0.154949128627777,-0.498772859573364
-378.709455053059,100.121419107118,-81.6688574128928,-79.0182108787386,-0.174541234970093,0.15520641207695,-0.500015795230865
-378.709455053059,100.121419107118,-81.6688574128928,-79.0182108787386,-0.174777671694756,0.155461519956589,-0.501254498958588
-378.709455053059,100.121419107118,-81.6688574128928,-79.0182108787386,-0.175011292099953,0.155714437365532,-0.502489030361176
-378.709455053059,100.121419107118,-81.6688574128928,-79.0182108787386,-0.175242096185684,0.15596516430378,-0.503719389438629
-378.709455053059,100.121419107118,-81.6688574128928,-79.0182108787386,-0.17547008395195,0.156213715672493,-0.504945576190948
-378.709455053059,100.121419107118,-81.6688574128928,-79.0182108787386,-0.175695270299911,0.156460091471672,-0.506167531013489
-378.709455053059,100.121419107118,-81.6688574128928,-79.0182108787386,-0.175917655229568,0.156704291701317,-0.507385313510895
-378.709455053059,100.121419107118,-81.6688574128928,-79.0182108787386,-0.176137238740921,0.156946316361427,-0.508598923683167
-378.709455053059,100.121419107118,-81.6688574128928,-79.0182108787386,-0.176354020833969,0.157186165452003,-0.509808421134949
-378.709455053059,100.121419107118,-81.6688574128928,-79.0182108787386,-0.176568001508713,0.157423838973045,-0.511013746261597
-378.709455053059,100.121419107118,-81.6688574128928,-79.0182108787386,-0.176779195666313,0.157659351825714,-0.51221489906311
-378.709455053059,100.121419107118,-81.6688574128928,-79.0182108787386,-0.176987588405609,0.15789270401001,-0.51341187953949
-378.709455053059,100.121419107118,-81.6688574128928,-79.0182108787386,-0.177193194627762,0.158123895525932,-0.51460474729538
-378.709455053059,100.121419107118,-81.6688574128928,-79.0182108787386,-0.177396014332771,0.158352926373482,-0.515793442726135
-378.709455053059,100.121419107118,-81.6688574128928,-79.0182108787386,-0.177596062421799,0.158579796552658,-0.516978025436401
-378.709455053059,100.121419107118,-81.6688574128928,-79.0182108787386,-0.177793323993683,0.158804506063461,-0.518158495426178
-378.709455053059,100.121419107118,-81.6688574128928,-79.0182108787386,-0.177987813949585,0.159027069807053,-0.519334852695465
-378.709455053059,100.121419107118,-81.6688574128928,-79.0182108787386,-0.178179532289505,0.159247487783432,-0.520507037639618
-378.709455053059,100.121419107118,-81.6688574128928,-79.0182108787386,-0.178368479013443,0.159465745091438,-0.521675109863281
-378.709455053059,100.121419107118,-81.6688574128928,-79.0182108787386,-0.178554654121399,0.159681856632233,-0.522839069366455
-378.709455053059,100.121419107118,-81.6688574128928,-79.0182108787386,-0.178738057613373,0.159895837306976,-0.523998975753784
-378.709455053059,100.121419107118,-81.6688574128928,-79.0182108787386,-0.178918704390526,0.160107672214508,-0.525154769420624
-378.709455053059,100.121419107118,-81.6688574128928,-79.0182108787386,-0.179096594452858,0.160317361354828,-0.526306450366974
-378.709455053059,100.121419107118,-81.6688574128928,-79.0182108787386,-0.179271727800369,0.160524919629097,-0.527454018592834
-378.709455053059,100.121419107118,-81.6688574128928,-79.0182108787386,-0.17944410443306,0.160730347037315,-0.52859753370285
-378.709455053059,100.121419107118,-81.6688574128928,-79.0182108787386,-0.179613724350929,0.160933643579483,-0.529736936092377
-378.709455053059,100.121419107118,-81.6688574128928,-79.0182108787386,-0.179780602455139,0.1611348092556,-0.530872285366058
-378.709455053059,100.121419107118,-81.6688574128928,-79.0182108787386,-0.179944723844528,0.161333844065666,-0.532003581523895
-378.709455053059,100.121419107118,-81.6688574128928,-79.0182108787386,-0.180106103420258,0.161530762910843,-0.533130824565887
-378.709455053059,100.121419107118,-81.6688574128928,-79.0182108787386,-0.180264756083488,0.161725550889969,-0.53425395488739
-378.709455053059,100.121419107118,-81.6688574128928,-79.0182108787386,-0.18042066693306,0.161918222904205,-0.535373032093048
-378.709455053059,100.121419107118,-81.6688574128928,-79.0182108787386,-0.180573835968971,0.162108778953552,-0.536488056182861
-378.709455053059,100.121419107118,-81.6688574128928,-79.0182108787386,-0.180724278092384,0.16229721903801,-0.53759902715683
-378.709455053059,100.121419107118,-81.6688574128928,-79.0182108787386,-0.180871993303299,0.162483543157578,-0.538706004619598
-378.709455053059,100.121419107118,-81.6688574128928,-79.0182108787386,-0.181016981601715,0.162667766213417,-0.539808928966522
-378.709455053059,100.121419107118,-81.6688574128928,-79.0182108787386,-0.181159242987633,0.162849873304367,-0.540907800197601
-378.709455053059,100.121419107118,-81.6688574128928,-79.0182108787386,-0.181298792362213,0.163029879331589,-0.54200267791748
-378.709455053059,100.121419107118,-81.6688574128928,-79.0182108787386,-0.181435614824295,0.163207784295082,-0.543093502521515
-378.709455053059,100.121419107118,-81.6688574128928,-79.0182108787386,-0.18156972527504,0.163383588194847,-0.544180333614349
-378.709455053059,100.121419107118,-81.6688574128928,-79.0182108787386,-0.181701123714447,0.163557291030884,-0.545263111591339
-378.709455053059,100.121419107118,-81.6688574128928,-79.0182108787386,-0.181829810142517,0.163728892803192,-0.546341896057129
-378.709455053059,100.121419107118,-81.6688574128928,-79.0182108787386,-0.181955799460411,0.163898408412933,-0.547416687011719
-378.709455053059,100.121419107118,-81.6688574128928,-79.0182108787386,-0.182079076766968,0.164065822958946,-0.548487484455109
-378.709455053059,100.121419107118,-81.6688574128928,-79.0182108787386,-0.182199656963348,0.164231151342392,-0.549554288387299
-378.709455053059,100.121419107118,-81.6688574128928,-79.0182108787386,-0.182317540049553,0.164394393563271,-0.550617098808289
-378.709455053059,100.121419107118,-81.6688574128928,-79.0182108787386,-0.182432726025581,0.164555549621582,-0.551675915718079
-378.709455053059,100.121419107118,-81.6688574128928,-79.0182108787386,-0.182545229792595,0.164714619517326,-0.552730798721313
-378.709455053059,100.121419107118,-81.6688574128928,-79.0182108787386,-0.182655036449432,0.164871618151665,-0.553781688213348
-378.709455053059,100.121419107118,-81.6688574128928,-79.0182108787386,-0.182762160897255,0.165026530623436,-0.554828584194183
-378.709455053059,100.121419107118,-81.6688574128928,-79.0182108787386,-0.182866603136063,0.165179371833801,-0.555871546268463
-378.709455053059,100.121419107118,-81.6688574128928,-79.0182108787386,-0.182968363165855,0.165330141782761,-0.556910514831543
-378.709455053059,100.121419107118,-81.6688574128928,-79.0182108787386,-0.183067440986633,0.165478840470314,-0.557945549488068
-378.709455053059,100.121419107118,-81.6688574128928,-79.0182108787386,-0.183163851499557,0.165625467896461,-0.558976650238037
-378.709455053059,100.121419107118,-81.6688574128928,-79.0182108787386,-0.183257579803467,0.165770038962364,-0.560003817081451
-378.709455053059,100.121419107118,-81.6688574128928,-79.0182108787386,-0.183348640799522,0.165912538766861,-0.561026990413666
-378.709455053059,100.121419107118,-81.6688574128928,-79.0182108787386,-0.183437034487724,0.166052982211113,-0.562046229839325
-378.709455053059,100.121419107118,-81.6688574128928,-79.0182108787386,-0.183522760868073,0.16619136929512,-0.563061535358429
-378.709455053059,100.121419107118,-81.6688574128928,-79.0182108787386,-0.183605834841728,0.166327700018883,-0.564072966575623
-378.709455053059,100.121419107118,-81.6688574128928,-79.0182108787386,-0.18368624150753,0.166461974382401,-0.565080463886261
-378.709455053059,100.121419107118,-81.6688574128928,-79.0182108787386,-0.18376399576664,0.166594192385674,-0.566084027290344
-378.709455053059,100.121419107118,-81.6688574128928,-79.0182108787386,-0.183839097619057,0.166724354028702,-0.567083656787872
-378.709455053059,100.121419107118,-81.6688574128928,-79.0182108787386,-0.183911547064781,0.166852474212646,-0.56807941198349
-378.709455053059,100.121419107118,-81.6688574128928,-79.0182108787386,-0.183981344103813,0.166978552937508,-0.569071233272552
-378.709455053059,100.121419107118,-81.6688574128928,-79.0182108787386,-0.184048503637314,0.167102590203285,-0.570059180259705
-378.709455053059,100.121419107118,-81.6688574128928,-79.0182108787386,-0.184113025665283,0.167224586009979,-0.571043252944946
-378.709455053059,100.121419107118,-81.6688574128928,-79.0182108787386,-0.184174910187721,0.16734454035759,-0.572023451328278
-378.709455053059,100.121419107118,-81.6688574128928,-79.0182108787386,-0.184234157204628,0.167462453246117,-0.572999715805054
-378.709455053059,100.121419107118,-81.6688574128928,-79.0182108787386,-0.184290766716003,0.167578339576721,-0.573972105979919
-378.709455053059,100.121419107118,-81.6688574128928,-79.0182108787386,-0.184344738721848,0.167692184448242,-0.574940621852875
-378.709455053059,100.121419107118,-81.6688574128928,-79.0182108787386,-0.184396088123322,0.167804002761841,-0.575905323028564
-378.709455053059,100.121419107118,-81.6688574128928,-79.0182108787386,-0.184444814920425,0.167913794517517,-0.576866149902344
-378.709455053059,100.121419107118,-81.6688574128928,-79.0182108787386,-0.184490919113159,0.168021559715271,-0.577823102474213
-378.709455053059,100.121419107118,-81.6688574128928,-79.0182108787386,-0.184534400701523,0.168127313256264,-0.578776180744171
-378.709455053059,100.121419107118,-81.6688574128928,-79.0182108787386,-0.184575259685516,0.168231040239334,-0.579725444316864
-378.709455053059,100.121419107118,-81.6688574128928,-79.0182108787386,-0.184613510966301,0.168332755565643,-0.580670833587646
-378.709455053059,100.121419107118,-81.6688574128928,-79.0182108787386,-0.184649154543877,0.16843244433403,-0.581612408161163
-378.709455053059,100.121419107118,-81.6688574128928,-79.0182108787386,-0.184682175517082,0.168530121445656,-0.58255010843277
-378.709455053059,100.121419107118,-81.6688574128928,-79.0182108787386,-0.18471260368824,0.16862578690052,-0.583483994007111
-378.709455053059,100.121419107118,-81.6688574128928,-79.0182108787386,-0.184740424156189,0.168719455599785,-0.584414064884186
-378.709455053059,100.121419107118,-81.6688574128928,-79.0182108787386,-0.184765636920929,0.168811112642288,-0.585340321063995
-378.709455053059,100.121419107118,-81.6688574128928,-79.0182108787386,-0.184788256883621,0.168900772929192,-0.586262762546539
-378.709455053059,100.121419107118,-81.6688574128928,-79.0182108787386,-0.184808284044266,0.168988421559334,-0.587181389331818
-378.709455053059,100.121419107118,-81.6688574128928,-79.0182108787386,-0.184825718402863,0.169074073433876,-0.58809620141983
-378.709455053059,100.121419107118,-81.6688574128928,-79.0182108787386,-0.184840559959412,0.169157728552818,-0.589007198810577
-378.709455053059,100.121419107118,-81.6688574128928,-79.0182108787386,-0.184852808713913,0.169239386916161,-0.589914441108704
-378.709455053059,100.121419107118,-81.6688574128928,-79.0182108787386,-0.184862479567528,0.169319048523903,-0.590817868709564
-378.709455053059,100.121419107118,-81.6688574128928,-79.0182108787386,-0.184869572520256,0.169396728277206,-0.591717481613159
-378.709455053059,100.121419107118,-81.6688574128928,-79.0182108787386,-0.184874087572098,0.16947241127491,-0.592613339424133
-378.709455053059,100.121419107118,-81.6688574128928,-79.0182108787386,-0.184876024723053,0.169546112418175,-0.593505442142487
-378.709455053059,100.121419107118,-81.6688574128928,-79.0182108787386,-0.184875383973122,0.169617831707001,-0.594393730163574
-378.709455053059,100.121419107118,-81.6688574128928,-79.0182108787386,-0.184872180223465,0.169687569141388,-0.595278263092041
-378.709455053059,100.121419107118,-81.6688574128928,-79.0182108787386,-0.184866398572922,0.169755324721336,-0.596159040927887
-378.709455053059,100.121419107118,-81.6688574128928,-79.0182108787386,-0.184858053922653,0.169821113348007,-0.597036063671112
-378.709455053059,100.121419107118,-81.6688574128928,-79.0182108787386,-0.184847146272659,0.169884920120239,-0.597909331321716
-378.709455053059,100.121419107118,-81.6688574128928,-79.0182108787386,-0.18483367562294,0.169946759939194,-0.5987788438797
-378.709455053059,100.121419107118,-81.6688574128928,-79.0182108787386,-0.184817656874657,0.170006617903709,-0.599644601345062
-378.709455053059,100.121419107118,-81.6688574128928,-79.0182108787386,-0.184799075126648,0.170064508914948,-0.600506603717804
-378.709455053059,100.121419107118,-81.6688574128928,-79.0182108787386,-0.184777945280075,0.170120447874069,-0.60136491060257
-378.709455053059,100.121419107118,-81.6688574128928,-79.0182108787386,-0.184754267334938,0.170174419879913,-0.602219462394714
-378.709455053059,100.121419107118,-81.6688574128928,-79.0182108787386,-0.184728041291237,0.17022642493248,-0.603070259094238
-378.709455053059,100.121419107118,-81.6688574128928,-79.0182108787386,-0.184699282050133,0.17027647793293,-0.603917360305786
-378.709455053059,100.121419107118,-81.6688574128928,-79.0182108787386,-0.184667974710464,0.170324563980103,-0.604760766029358
-378.709455053059,100.121419107118,-81.6688574128928,-79.0182108787386,-0.184634134173393,0.170370697975159,-0.605600416660309
-378.709455053059,100.121419107118,-81.6688574128928,-79.0182108787386,-0.184597760438919,0.170414879918098,-0.606436371803284
-378.709455053059,100.121419107118,-81.6688574128928,-79.0182108787386,-0.184558853507042,0.170457109808922,-0.607268631458282
-378.709455053059,100.121419107118,-81.6688574128928,-79.0182108787386,-0.184517413377762,0.17049740254879,-0.608097195625305
-378.709455053059,100.121419107118,-81.6688574128928,-79.0182108787386,-0.184473440051079,0.170535743236542,-0.608922064304352
-378.709455053059,100.121419107118,-81.6688574128928,-79.0182108787386,-0.184426948428154,0.170572146773338,-0.609743237495422
-378.709455053059,100.121419107118,-81.6688574128928,-79.0182108787386,-0.184377938508987,0.17060661315918,-0.610560715198517
-378.709455053059,100.121419107118,-81.6688574128928,-79.0182108787386,-0.184326410293579,0.170639127492905,-0.61137455701828
-378.709455053059,100.121419107118,-81.6688574128928,-79.0182108787386,-0.184272363781929,0.170669704675674,-0.612184703350067
-378.709455053059,100.121419107118,-81.6688574128928,-79.0182108787386,-0.184215798974037,0.17069835960865,-0.612991154193878
-378.709455053059,100.121419107118,-81.6688574128928,-79.0182108787386,-0.184156730771065,0.170725077390671,-0.613793969154358
-378.709455053059,100.121419107118,-81.6688574128928,-79.0182108787386,-0.184095144271851,0.170749872922897,-0.614593088626862
-378.709455053059,100.121419107118,-81.6688574128928,-79.0182108787386,-0.184031054377556,0.170772731304169,-0.615388572216034
-378.709455053059,100.121419107118,-81.6688574128928,-79.0182108787386,-0.183964461088181,0.170793667435646,-0.616180419921875
-378.709455053059,100.121419107118,-81.6688574128928,-79.0182108787386,-0.183895364403725,0.170812681317329,-0.61696857213974
-378.709455053059,100.121419107118,-81.6688574128928,-79.0182108787386,-0.183823779225349,0.170829772949219,-0.617753088474274
-378.709455053059,100.121419107118,-81.6688574128928,-79.0182108787386,-0.183749690651894,0.170844942331314,-0.618533968925476
-378.709455053059,100.121419107118,-81.6688574128928,-79.0182108787386,-0.183673113584518,0.170858204364777,-0.619311213493347
-378.709455053059,100.121419107118,-81.6688574128928,-79.0182108787386,-0.183594048023224,0.170869544148445,-0.620084822177887
-378.709455053059,100.121419107118,-81.6688574128928,-79.0182108787386,-0.18351249396801,0.170878976583481,-0.62085485458374
-378.709455053059,100.121419107118,-81.6688574128928,-79.0182108787386,-0.183428451418877,0.170886501669884,-0.621621251106262
-378.709455053059,100.121419107118,-81.6688574128928,-79.0182108787386,-0.183341935276985,0.170892119407654,-0.622384011745453
-378.709455053059,100.121419107118,-81.6688574128928,-79.0182108787386,-0.183252945542336,0.170895829796791,-0.623143196105957
-378.709455053059,100.121419107118,-81.6688574128928,-79.0182108787386,-0.183161467313766,0.170897632837296,-0.62389874458313
-378.709455053059,100.121419107118,-81.6688574128928,-79.0182108787386,-0.183067515492439,0.170897543430328,-0.624650716781616
-378.709455053059,100.121419107118,-81.6688574128928,-79.0182108787386,-0.182971104979515,0.170895546674728,-0.625399053096771
-378.709455053059,100.121419107118,-81.6688574128928,-79.0182108787386,-0.182872220873833,0.170891657471657,-0.62614381313324
-378.709455053059,100.121419107118,-81.6688574128928,-79.0182108787386,-0.182770863175392,0.170885875821114,-0.626884996891022
-378.709455053059,100.121419107118,-81.6688574128928,-79.0182108787386,-0.182667046785355,0.170878201723099,-0.627622604370117
-378.709455053059,100.121419107118,-81.6688574128928,-79.0182108787386,-0.18256077170372,0.170868635177612,-0.628356635570526
-378.709455053059,100.121419107118,-81.6688574128928,-79.0182108787386,-0.182452037930489,0.170857191085815,-0.629087090492249
-378.709455053059,100.121419107118,-81.6688574128928,-79.0182108787386,-0.18234084546566,0.170843854546547,-0.629813969135284
-378.709455053059,100.121419107118,-81.6688574128928,-79.0182108787386,-0.182227209210396,0.170828640460968,-0.630537271499634
-378.709455053059,100.121419107118,-81.6688574128928,-79.0182108787386,-0.182111129164696,0.170811533927917,-0.631256997585297
-378.709455053059,100.121419107118,-81.6688574128928,-79.0182108787386,-0.181992590427399,0.170792549848557,-0.631973206996918
-378.709455053059,100.121419107118,-81.6688574128928,-79.0182108787386,-0.181871607899666,0.170771688222885,-0.632685840129852
-378.709455053059,100.121419107118,-81.6688574128928,-79.0182108787386,-0.181748181581497,0.170748963952065,-0.633394956588745
-378.709455053059,100.121419107118,-81.6688574128928,-79.0182108787386,-0.181622326374054,0.170724362134933,-0.634100496768951
-378.709455053059,100.121419107118,-81.6688574128928,-79.0182108787386,-0.181494027376175,0.170697897672653,-0.634802520275116
-378.709455053059,100.121419107118,-81.6688574128928,-79.0182108787386,-0.181363299489021,0.170669555664063,-0.635501027107239
-378.709455053059,100.121419107118,-81.6688574128928,-79.0182108787386,-0.181230142712593,0.170639351010323,-0.636195957660675
-378.709455053059,100.121419107118,-81.6688574128928,-79.0182108787386,-0.18109455704689,0.170607283711433,-0.63688737154007
-378.709455053059,100.121419107118,-81.6688574128928,-79.0182108787386,-0.180956542491913,0.170573353767395,-0.637575268745422
-378.709455053059,100.121419107118,-81.6688574128928,-79.0182108787386,-0.180816113948822,0.170537561178207,-0.638259649276733
-378.709455053059,100.121419107118,-81.6688574128928,-79.0182108787386,-0.180673256516457,0.170499920845032,-0.638940513134003
-378.709455053059,100.121419107118,-81.6688574128928,-79.0182108787386,-0.180527985095978,0.170460417866707,-0.63961786031723
-378.709455053059,100.121419107118,-81.6688574128928,-79.0182108787386,-0.180380299687386,0.170419067144394,-0.640291750431061
-378.709455053059,100.121419107118,-81.6688574128928,-79.0182108787386,-0.18023020029068,0.170375868678093,-0.64096212387085
-378.709455053059,100.121419107118,-81.6688574128928,-79.0182108787386,-0.180077686905861,0.170330822467804,-0.641628980636597
-378.709455053059,100.121419107118,-81.6688574128928,-79.0182108787386,-0.17992277443409,0.170283928513527,-0.642292380332947
-378.709455053059,100.121419107118,-81.6688574128928,-79.0182108787386,-0.179765447974205,0.170235186815262,-0.6429523229599
-378.709455053059,100.121419107118,-81.6688574128928,-79.0182108787386,-0.179605722427368,0.17018461227417,-0.643608748912811
-378.709455053059,100.121419107118,-81.6688574128928,-79.0182108787386,-0.179443597793579,0.17013218998909,-0.644261717796326
-378.709455053059,100.121419107118,-81.6688574128928,-79.0182108787386,-0.179279074072838,0.170077934861183,-0.644911229610443
-378.709455053059,100.121419107118,-81.6688574128928,-79.0182108787386,-0.179112166166306,0.17002184689045,-0.645557224750519
-378.709455053059,100.121419107118,-81.6688574128928,-79.0182108787386,-0.178942859172821,0.169963926076889,-0.646199762821198
-378.709455053059,100.121419107118,-81.6688574128928,-79.0182108787386,-0.178771167993546,0.169904172420502,-0.646838843822479
-378.709455053059,100.121419107118,-81.6688574128928,-79.0182108787386,-0.178597092628479,0.169842585921288,-0.647474527359009
-378.709455053059,100.121419107118,-81.6688574128928,-79.0182108787386,-0.178420633077621,0.169779181480408,-0.648106753826141
-378.709455053059,100.121419107118,-81.6688574128928,-79.0182108787386,-0.178241789340973,0.169713944196701,-0.648735523223877
-378.709455053059,100.121419107118,-81.6688574128928,-79.0182108787386,-0.178060561418533,0.169646888971329,-0.649360835552216
-378.709455053059,100.121419107118,-81.6688574128928,-79.0182108787386,-0.177876964211464,0.169578015804291,-0.649982750415802
-378.709455053059,100.121419107118,-81.6688574128928,-79.0182108787386,-0.177690997719765,0.169507324695587,-0.650601208209991
-378.709455053059,100.121419107118,-81.6688574128928,-79.0182108787386,-0.177502661943436,0.169434815645218,-0.651216268539429
-378.709455053059,100.121419107118,-81.6688574128928,-79.0182108787386,-0.177311956882477,0.169360503554344,-0.651827871799469
-378.709455053059,100.121419107118,-81.6688574128928,-79.0182108787386,-0.177118882536888,0.169284373521805,-0.652436077594757
-378.709455053059,100.121419107118,-81.6688574128928,-79.0182108787386,-0.176923453807831,0.169206440448761,-0.653040885925293
-378.709455053059,100.121419107118,-81.6688574128928,-79.0182108787386,-0.176725655794144,0.169126689434052,-0.653642296791077
-378.709455053059,100.121419107118,-81.6688574128928,-79.0182108787386,-0.176525503396988,0.169045135378838,-0.654240250587463
-378.709455053059,100.121419107118,-81.6688574128928,-79.0182108787386,-0.176322996616364,0.168961778283119,-0.654834806919098
-378.709455053059,100.121419107118,-81.6688574128928,-79.0182108787386,-0.176118135452271,0.168876618146896,-0.65542596578598
-378.709455053059,100.121419107118,-81.6688574128928,-79.0182108787386,-0.175910919904709,0.16878966987133,-0.656013786792755
-378.709455053059,100.121419107118,-81.6688574128928,-79.0182108787386,-0.17570136487484,0.16870091855526,-0.656598210334778
-378.709455053059,100.121419107118,-81.6688574128928,-79.0182108787386,-0.175489470362663,0.168610379099846,-0.657179236412048
-378.709455053059,100.121419107118,-81.6688574128928,-79.0182108787386,-0.175275221467018,0.168518051505089,-0.657756865024567
-378.709455053059,100.121419107118,-81.6688574128928,-79.0182108787386,-0.175058633089066,0.168423935770988,-0.658331155776978
-378.709455053059,100.121419107118,-81.6688574128928,-79.0182108787386,-0.174839720129967,0.168328031897545,-0.658902049064636
-378.709455053059,100.121419107118,-81.6688574128928,-79.0182108787386,-0.17461846768856,0.168230339884758,-0.659469604492188
-378.709455053059,100.121419107118,-81.6688574128928,-79.0182108787386,-0.174394890666008,0.168130859732628,-0.660033822059631
-378.709455053059,100.121419107118,-81.6688574128928,-79.0182108787386,-0.174168974161148,0.168029606342316,-0.660594642162323
-378.709455053059,100.121419107118,-81.6688574128928,-79.0182108787386,-0.173940733075142,0.16792656481266,-0.661152124404907
-378.709455053059,100.121419107118,-81.6688574128928,-79.0182108787386,-0.17371016740799,0.167821750044823,-0.661706268787384
-378.709455053059,100.121419107118,-81.6688574128928,-79.0182108787386,-0.173477292060852,0.167715162038803,-0.662257075309753
-378.709455053059,100.121419107118,-81.6688574128928,-79.0182108787386,-0.173242092132568,0.167606800794601,-0.662804543972015
-378.709455053059,100.121419107118,-81.6688574128928,-79.0182108787386,-0.1730045825243,0.167496666312218,-0.66334867477417
-378.709455053059,100.121419107118,-81.6688574128928,-79.0182108787386,-0.172764748334885,0.167384773492813,-0.663889467716217
-378.709455053059,100.121419107118,-81.6688574128928,-79.0182108787386,-0.172522604465485,0.167271107435226,-0.664426982402802
-378.709455053059,100.121419107118,-81.6688574128928,-79.0182108787386,-0.1722781509161,0.167155683040619,-0.664961159229279
-378.709455053059,100.121419107118,-81.6688574128928,-79.0182108787386,-0.172031402587891,0.16703850030899,-0.665491998195648
-378.709455053059,100.121419107118,-81.6688574128928,-79.0182108787386,-0.171782344579697,0.16691954433918,-0.666019558906555
-378.709455053059,100.121419107118,-81.6688574128928,-79.0182108787386,-0.171530991792679,0.16679884493351,-0.666543781757355
-378.709455053059,100.121419107118,-81.6688574128928,-79.0182108787386,-0.171277329325676,0.166676387190819,-0.667064726352692
-378.709455053059,100.121419107118,-81.6688574128928,-79.0182108787386,-0.171021372079849,0.166552171111107,-0.667582392692566
-378.709455053059,100.121419107118,-81.6688574128928,-79.0182108787386,-0.17076313495636,0.166426211595535,-0.668096721172333
-378.709455053059,100.121419107118,-81.6688574128928,-79.0182108787386,-0.170502603054047,0.166298493742943,-0.668607771396637
-378.709455053059,100.121419107118,-81.6688574128928,-79.0182108787386,-0.17023977637291,0.166169032454491,-0.669115543365479
-378.709455053059,100.121419107118,-81.6688574128928,-79.0182108787386,-0.16997466981411,0.166037827730179,-0.669620037078857
-378.709455053059,100.121419107118,-81.6688574128928,-79.0182108787386,-0.169707283377647,0.165904879570007,-0.670121252536774
-378.709455053059,100.121419107118,-81.6688574128928,-79.0182108787386,-0.169437617063522,0.165770187973976,-0.670619189739227
-378.709455053059,100.121419107118,-81.6688574128928,-79.0182108787386,-0.169165670871735,0.165633767843246,-0.671113908290863
-378.709455053059,100.121419107118,-81.6688574128928,-79.0182108787386,-0.168891444802284,0.165495604276657,-0.671605348587036
-378.709455053059,100.121419107118,-81.6688574128928,-79.0182108787386,-0.168614953756332,0.165355712175369,-0.672093510627747
-378.709455053059,100.121419107118,-81.6688574128928,-79.0182108787386,-0.168336197733879,0.165214076638222,-0.672578454017639
-378.709455053059,100.121419107118,-81.6688574128928,-79.0182108787386,-0.168055176734924,0.165070712566376,-0.673060119152069
-378.709455053059,100.121419107118,-81.6688574128928,-79.0182108787386,-0.167771890759468,0.164925619959831,-0.673538565635681
-378.709455053059,100.121419107118,-81.6688574128928,-79.0182108787386,-0.16748633980751,0.164778813719749,-0.674013733863831
-378.709455053059,100.121419107118,-81.6688574128928,-79.0182108787386,-0.167198523879051,0.164630278944969,-0.674485683441162
-378.709455053059,100.121419107118,-81.6688574128928,-79.0182108787386,-0.166908457875252,0.16448001563549,-0.674954414367676
-378.709455053059,100.121419107118,-81.6688574128928,-79.0182108787386,-0.166616126894951,0.164328038692474,-0.675419926643372
-378.709455053059,100.121419107118,-81.6688574128928,-79.0182108787386,-0.16632154583931,0.164174348115921,-0.67588222026825
-378.709455053059,100.121419107118,-81.6688574128928,-79.0182108787386,-0.166024714708328,0.16401894390583,-0.67634129524231
-378.709455053059,100.121419107118,-81.6688574128928,-79.0182108787386,-0.165725648403168,0.163861826062202,-0.676797151565552
-378.709455053059,100.121419107118,-81.6688574128928,-79.0182108787386,-0.165424332022667,0.163702994585037,-0.677249789237976
-378.709455053059,100.121419107118,-81.6688574128928,-79.0182108787386,-0.165120780467987,0.163542449474335,-0.677699208259583
-378.709455053059,100.121419107118,-81.6688574128928,-79.0182108787386,-0.164814978837967,0.163380205631256,-0.678145408630371
-378.709455053059,100.121419107118,-81.6688574128928,-79.0182108787386,-0.164506942033768,0.16321624815464,-0.678588449954987
-378.709455053059,100.121419107118,-81.6688574128928,-79.0182108787386,-0.164196670055389,0.163050591945648,-0.679028272628784
-378.709455053059,100.121419107118,-81.6688574128928,-79.0182108787386,-0.163884177803993,0.16288323700428,-0.679464936256409
-378.709455053059,100.121419107118,-81.6688574128928,-79.0182108787386,-0.163569450378418,0.162714183330536,-0.679898381233215
-378.709455053059,100.121419107118,-81.6688574128928,-79.0182108787386,-0.163252502679825,0.162543430924416,-0.680328667163849
-378.709455053059,100.121419107118,-81.6688574128928,-79.0182108787386,-0.162933319807053,0.16237099468708,-0.680755794048309
-378.709455053059,100.121419107118,-81.6688574128928,-79.0182108787386,-0.162611916661263,0.162196859717369,-0.681179702281952
-378.709455053059,100.121419107118,-81.6688574128928,-79.0182108787386,-0.162288293242455,0.162021040916443,-0.681600451469421
-378.709455053059,100.121419107118,-81.6688574128928,-79.0182108787386,-0.16196246445179,0.161843523383141,-0.682018041610718
-378.709455053059,100.121419107118,-81.6688574128928,-79.0182108787386,-0.161634415388107,0.161664322018623,-0.682432472705841
-378.709455053059,100.121419107118,-81.6688574128928,-79.0182108787386,-0.161304160952568,0.161483436822891,-0.682843744754791
-378.709455053059,100.121419107118,-81.6688574128928,-79.0182108787386,-0.160971686244011,0.161300867795944,-0.683251917362213
-378.709455053059,100.121419107118,-81.6688574128928,-79.0182108787386,-0.160637006163597,0.161116629838943,-0.683656930923462
-378.709455053059,100.121419107118,-81.6688574128928,-79.0182108787386,-0.160300120711327,0.160930708050728,-0.684058785438538
-378.709455053059,100.121419107118,-81.6688574128928,-79.0182108787386,-0.159961044788361,0.160743117332458,-0.684457540512085
-378.709455053059,100.121419107118,-81.6688574128928,-79.0182108787386,-0.159619763493538,0.160553842782974,-0.684853136539459
-378.709455053059,100.121419107118,-81.6688574128928,-79.0182108787386,-0.15927629172802,0.160362899303436,-0.685245633125305
-378.709455053059,100.121419107118,-81.6688574128928,-79.0182108787386,-0.158930629491806,0.160170286893845,-0.685634970664978
-378.709455053059,100.121419107118,-81.6688574128928,-79.0182108787386,-0.158582776784897,0.159976005554199,-0.686021208763123
-378.709455053059,100.121419107118,-81.6688574128928,-79.0182108787386,-0.158232733607292,0.159780070185661,-0.686404347419739
-378.709455053059,100.121419107118,-81.6688574128928,-79.0182108787386,-0.157880499958992,0.15958246588707,-0.686784327030182
-378.709455053059,100.121419107118,-81.6688574128928,-79.0182108787386,-0.157526075839996,0.159383192658424,-0.687161207199097
-378.709455053059,100.121419107118,-81.6688574128928,-79.0182108787386,-0.157169476151466,0.159182265400887,-0.687534987926483
-378.709455053059,100.121419107118,-81.6688574128928,-79.0182108787386,-0.156810700893402,0.158979684114456,-0.687905669212341
-378.709455053059,100.121419107118,-81.6688574128928,-79.0182108787386,-0.156449750065804,0.158775448799133,-0.688273251056671
-378.709455053059,100.121419107118,-81.6688574128928,-79.0182108787386,-0.156086623668671,0.158569559454918,-0.688637733459473
-378.709455053059,100.121419107118,-81.6688574128928,-79.0182108787386,-0.155721321702003,0.15836201608181,-0.688999176025391
-378.709455053059,100.121419107118,-81.6688574128928,-79.0182108787386,-0.155353859066963,0.158152833580971,-0.68935751914978
-378.709455053059,100.121419107118,-81.6688574128928,-79.0182108787386,-0.154984220862389,0.157941997051239,-0.689712762832642
-378.709455053059,100.121419107118,-81.6688574128928,-79.0182108787386,-0.154612421989441,0.157729521393776,-0.690064966678619
-378.709455053059,100.121419107118,-81.6688574128928,-79.0182108787386,-0.15423846244812,0.157515406608582,-0.690414071083069
-378.709455053059,100.121419107118,-81.6688574128928,-79.0182108787386,-0.153862342238426,0.157299637794495,-0.690760135650635
-378.709455053059,100.121419107118,-81.6688574128928,-79.0182108787386,-0.15348407626152,0.157082244753838,-0.691103160381317
-378.709455053059,100.121419107118,-81.6688574128928,-79.0182108787386,-0.153103649616241,0.156863212585449,-0.691443085670471
-378.709455053059,100.121419107118,-81.6688574128928,-79.0182108787386,-0.152721077203751,0.15664254128933,-0.691779971122742
-378.709455053059,100.121419107118,-81.6688574128928,-79.0182108787386,-0.152336359024048,0.15642024576664,-0.692113816738129
-378.709455053059,100.121419107118,-81.6688574128928,-79.0182108787386,-0.151949480175972,0.156196311116219,-0.692444622516632
-378.709455053059,100.121419107118,-81.6688574128928,-79.0182108787386,-0.151560470461845,0.155970752239227,-0.692772388458252
-378.709455053059,100.121419107118,-81.6688574128928,-79.0182108787386,-0.151169314980507,0.155743569135666,-0.693097114562988
-378.709455053059,100.121419107118,-81.6688574128928,-79.0182108787386,-0.150776013731956,0.155514761805534,-0.693418800830841
-378.709455053059,100.121419107118,-81.6688574128928,-79.0182108787386,-0.150380581617355,0.155284330248833,-0.69373744726181
-378.709455053059,100.121419107118,-81.6688574128928,-79.0182108787386,-0.149983018636703,0.155052274465561,-0.694053113460541
-378.709455053059,100.121419107118,-81.6688574128928,-79.0182108787386,-0.149583324790001,0.15481860935688,-0.694365739822388
-378.709455053059,100.121419107118,-81.6688574128928,-79.0182108787386,-0.149181500077248,0.154583320021629,-0.694675385951996
-378.709455053059,100.121419107118,-81.6688574128928,-79.0182108787386,-0.148777544498444,0.15434642136097,-0.69498199224472
-378.709455053059,100.121419107118,-81.6688574128928,-79.0182108787386,-0.14837147295475,0.154107913374901,-0.695285618305206
-378.709455053059,100.121419107118,-81.6688574128928,-79.0182108787386,-0.147963270545006,0.153867796063423,-0.695586204528809
-378.709455053059,100.121419107118,-81.6688574128928,-79.0182108787386,-0.147552952170372,0.153626069426537,-0.695883810520172
-378.709455053059,100.121419107118,-81.6688574128928,-79.0182108787386,-0.147140517830849,0.153382733464241,-0.696178436279297
-378.709455053059,100.121419107118,-81.6688574128928,-79.0182108787386,-0.146725967526436,0.153137803077698,-0.696470081806183
-378.709455053059,100.121419107118,-81.6688574128928,-79.0182108787386,-0.146309316158295,0.152891263365746,-0.69675874710083
-378.709455053059,100.121419107118,-81.6688574128928,-79.0182108787386,-0.145890548825264,0.152643129229546,-0.697044432163239
-378.709455053059,100.121419107118,-81.6688574128928,-79.0182108787386,-0.145469680428505,0.152393400669098,-0.697327136993408
-378.709455053059,100.121419107118,-81.6688574128928,-79.0182108787386,-0.145046696066856,0.152142077684402,-0.697606861591339
-378.709455053059,100.121419107118,-81.6688574128928,-79.0182108787386,-0.144621610641479,0.151889160275459,-0.697883605957031
-378.709455053059,100.121419107118,-81.6688574128928,-79.0182108787386,-0.144194424152374,0.151634648442268,-0.698157370090485
-378.709455053059,100.121419107118,-81.6688574128928,-79.0182108787386,-0.143765151500702,0.15137854218483,-0.698428213596344
-378.709455053059,100.121419107118,-81.6688574128928,-79.0182108787386,-0.143333777785301,0.151120856404305,-0.698696076869965
-378.709455053059,100.121419107118,-81.6688574128928,-79.0182108787386,-0.142900317907333,0.150861576199532,-0.698961019515991
-378.709455053059,100.121419107118,-81.6688574128928,-79.0182108787386,-0.142464771866798,0.150600716471672,-0.699222981929779
-378.709455053059,100.121419107118,-81.6688574128928,-79.0182108787386,-0.142027139663696,0.150338277220726,-0.699482023715973
-378.709455053059,100.121419107118,-81.6688574128928,-79.0182108787386,-0.141587421298027,0.150074258446693,-0.699738085269928
-378.709455053059,100.121419107118,-81.6688574128928,-79.0182108787386,-0.141145616769791,0.149808660149574,-0.699991226196289
-378.709455053059,100.121419107118,-81.6688574128928,-79.0182108787386,-0.140701726078987,0.149541482329369,-0.700241446495056
-378.709455053059,100.121419107118,-81.6688574128928,-79.0182108787386,-0.140255764126778,0.149272739887238,-0.700488746166229
-378.709455053059,100.121419107118,-81.6688574128928,-79.0182108787386,-0.139807730913162,0.14900241792202,-0.700733125209808
-378.709455053059,100.121419107118,-81.6688574128928,-79.0182108787386,-0.139357626438141,0.148730531334877,-0.700974583625793
-378.709455053059,100.121419107118,-81.6688574128928,-79.0182108787386,-0.138905450701714,0.148457080125809,-0.701213121414185
-378.709455053059,100.121419107118,-81.6688574128928,-79.0182108787386,-0.13845120370388,0.148182064294815,-0.701448738574982
-378.709455053059,100.121419107118,-81.6688574128928,-79.0182108787386,-0.137994885444641,0.147905483841896,-0.70168149471283
-378.709455053059,100.121419107118,-81.6688574128928,-79.0182108787386,-0.137536510825157,0.147627338767052,-0.701911330223084
-378.709455053059,100.121419107118,-81.6688574128928,-79.0182108787386,-0.137076079845428,0.147347643971443,-0.702138245105743
-378.709455053059,100.121419107118,-81.6688574128928,-79.0182108787386,-0.136613592505455,0.147066384553909,-0.702362298965454
-378.709455053059,100.121419107118,-81.6688574128928,-79.0182108787386,-0.136149048805237,0.146783575415611,-0.702583432197571
-378.709455053059,100.121419107118,-81.6688574128928,-79.0182108787386,-0.135682448744774,0.146499216556549,-0.702801704406738
-378.709455053059,100.121419107118,-81.6688574128928,-79.0182108787386,-0.135213792324066,0.146213293075562,-0.703017115592957
-378.709455053059,100.121419107118,-81.6688574128928,-79.0182108787386,-0.134743094444275,0.145925834774971,-0.703229606151581
-378.709455053059,100.121419107118,-81.6688574128928,-79.0182108787386,-0.1342703551054,0.145636826753616,-0.703439235687256
-378.709455053059,100.121419107118,-81.6688574128928,-79.0182108787386,-0.133795559406281,0.145346269011497,-0.703646004199982
-378.709455053059,100.121419107118,-81.6688574128928,-79.0182108787386,-0.133318722248077,0.145054161548615,-0.703849911689758
-378.709455053059,100.121419107118,-81.6688574128928,-79.0182108787386,-0.132839858531952,0.144760519266129,-0.704050958156586
-378.709455053059,100.121419107118,-81.6688574128928,-79.0182108787386,-0.132358953356743,0.14446534216404,-0.704249143600464
-378.709455053059,100.121419107118,-81.6688574128928,-79.0182108787386,-0.131876021623611,0.144168630242348,-0.704444468021393
-378.709455053059,100.121419107118,-81.6688574128928,-79.0182108787386,-0.131391048431396,0.143870383501053,-0.704636931419373
-378.709455053059,100.121419107118,-81.6688574128928,-79.0182108787386,-0.130904048681259,0.143570601940155,-0.704826593399048
-378.709455053059,100.121419107118,-81.6688574128928,-79.0182108787386,-0.130415022373199,0.143269285559654,-0.705013394355774
-378.709455053059,100.121419107118,-81.6688574128928,-79.0182108787386,-0.129923969507217,0.14296643435955,-0.705197334289551
-378.709455053059,100.121419107118,-81.6688574128928,-79.0182108787386,-0.129430904984474,0.142662063241005,-0.705378472805023
-378.709455053059,100.121419107118,-81.6688574128928,-79.0182108787386,-0.128935813903809,0.142356157302856,-0.705556750297546
-378.709455053059,100.121419107118,-81.6688574128928,-79.0182108787386,-0.128438711166382,0.142048731446266,-0.705732226371765
-378.709455053059,100.121419107118,-81.6688574128928,-79.0182108787386,-0.127939596772194,0.141739785671234,-0.705904901027679
-378.709455053059,100.121419107118,-81.6688574128928,-79.0182108787386,-0.127438470721245,0.14142931997776,-0.706074774265289
-378.709455053059,100.121419107118,-81.6688574128928,-79.0182108787386,-0.126935333013535,0.141117334365845,-0.70624178647995
-378.709455053059,100.121419107118,-81.6688574128928,-79.0182108787386,-0.126430183649063,0.140803843736649,-0.706405997276306
-378.709455053059,100.121419107118,-81.6688574128928,-79.0182108787386,-0.125923037528992,0.140488833189011,-0.706567406654358
-378.709455053059,100.121419107118,-81.6688574128928,-79.0182108787386,-0.125413879752159,0.140172317624092,-0.706726014614105
-378.709455053059,100.121419107118,-81.6688574128928,-79.0182108787386,-0.124902725219727,0.139854282140732,-0.706881821155548
-378.709455053059,100.121419107118,-81.6688574128928,-79.0182108787386,-0.124389573931694,0.139534741640091,-0.707034885883331
-378.709455053059,100.121419107118,-81.6688574128928,-79.0182108787386,-0.123874425888062,0.139213696122169,-0.70718514919281
-378.709455053059,100.121419107118,-81.6688574128928,-79.0182108787386,-0.12335728853941,0.138891145586967,-0.707332611083984
-378.709455053059,100.121419107118,-81.6688574128928,-79.0182108787386,-0.122838154435158,0.138567104935646,-0.707477271556854
-378.709455053059,100.121419107118,-81.6688574128928,-79.0182108787386,-0.122317038476467,0.138241559267044,-0.707619190216064
-378.709455053059,100.121419107118,-81.6688574128928,-79.0182108787386,-0.121793933212757,0.137914508581161,-0.70775830745697
-378.709455053059,100.121419107118,-81.6688574128928,-79.0182108787386,-0.121268846094608,0.13758596777916,-0.707894682884216
-378.709455053059,100.121419107118,-81.6688574128928,-79.0182108787386,-0.120741777122021,0.137255936861038,-0.708028316497803
-378.709455053059,100.121419107118,-81.6688574128928,-79.0182108787386,-0.120212733745575,0.136924415826797,-0.708159148693085
-378.709455053059,100.121419107118,-81.6688574128928,-79.0182108787386,-0.11968170851469,0.136591404676437,-0.708287239074707
-378.709455053059,100.121419107118,-81.6688574128928,-79.0182108787386,-0.119148708879948,0.136256903409958,-0.70841258764267
-378.709455053059,100.121419107118,-81.6688574128928,-79.0182108787386,-0.118613742291927,0.135920912027359,-0.708535194396973
-378.709455053059,100.121419107118,-81.6688574128928,-79.0182108787386,-0.118076808750629,0.135583445429802,-0.708655059337616
-378.709455053059,100.121419107118,-81.6688574128928,-79.0182108787386,-0.117537908256054,0.135244488716125,-0.7087721824646
-378.709455053059,100.121419107118,-81.6688574128928,-79.0182108787386,-0.116997040808201,0.134904056787491,-0.708886563777924
-378.709455053059,100.121419107118,-81.6688574128928,-79.0182108787386,-0.116454213857651,0.134562149643898,-0.708998203277588
-378.709455053059,100.121419107118,-81.6688574128928,-79.0182108787386,-0.115909427404404,0.134218767285347,-0.709107100963593
-378.709455053059,100.121419107118,-81.6688574128928,-79.0182108787386,-0.11536268144846,0.133873909711838,-0.709213316440582
-378.709455053059,100.121419107118,-81.6688574128928,-79.0182108787386,-0.114813983440399,0.13352757692337,-0.709316790103912
-378.709455053059,100.121419107118,-81.6688574128928,-79.0182108787386,-0.114263333380222,0.133179768919945,-0.709417581558228
-378.709455053059,100.121419107118,-81.6688574128928,-79.0182108787386,-0.113710731267929,0.132830500602722,-0.709515631198883
-378.709455053059,100.121419107118,-81.6688574128928,-79.0182108787386,-0.1131561845541,0.132479757070541,-0.709610998630524
-378.709455053059,100.121419107118,-81.6688574128928,-79.0182108787386,-0.112599685788155,0.132127553224564,-0.709703624248505
-378.709455053059,100.121419107118,-81.6688574128928,-79.0182108787386,-0.112041249871254,0.131773889064789,-0.709793567657471
-378.709455053059,100.121419107118,-81.6688574128928,-79.0182108787386,-0.111480869352818,0.131418764591217,-0.709880828857422
-378.709455053059,100.121419107118,-81.6688574128928,-79.0182108787386,-0.110918551683426,0.131062179803848,-0.709965407848358
-378.709455053059,100.121419107118,-81.6688574128928,-79.0182108787386,-0.110354296863079,0.130704134702682,-0.71004730463028
-378.709455053059,100.121419107118,-81.6688574128928,-79.0182108787386,-0.109788112342358,0.130344644188881,-0.710126519203186
-378.709455053059,100.121419107118,-81.6688574128928,-79.0182108787386,-0.109219998121262,0.129983693361282,-0.710203051567078
-378.709455053059,100.121419107118,-81.6688574128928,-79.0182108787386,-0.108649954199791,0.129621297121048,-0.710276901721954
-378.709455053059,100.121419107118,-81.6688574128928,-79.0182108787386,-0.108077980577946,0.129257455468178,-0.710348069667816
-378.709455053059,100.121419107118,-81.6688574128928,-79.0182108787386,-0.107504084706306,0.128892168402672,-0.710416555404663
-378.709455053059,100.121419107118,-81.6688574128928,-79.0182108787386,-0.106928266584873,0.12852543592453,-0.710482358932495
-378.709455053059,100.121419107118,-81.6688574128928,-79.0182108787386,-0.106350526213646,0.128157258033752,-0.710545539855957
-378.709455053059,100.121419107118,-81.6688574128928,-79.0182108787386,-0.105770871043205,0.127787634730339,-0.710606038570404
-378.709455053059,100.121419107118,-81.6688574128928,-79.0182108787386,-0.105189301073551,0.12741656601429,-0.710663914680481
-378.709455053059,100.121419107118,-81.6688574128928,-79.0182108787386,-0.104605823755264,0.127044066786766,-0.710719108581543
-378.709455053059,100.121419107118,-81.6688574128928,-79.0182108787386,-0.104020431637764,0.126670137047768,-0.710771679878235
-378.709455053059,100.121419107118,-81.6688574128928,-79.0182108787386,-0.103433132171631,0.126294761896133,-0.710821628570557
-378.709455053059,100.121419107118,-81.6688574128928,-79.0182108787386,-0.102843925356865,0.125917956233025,-0.710868895053864
-378.709455053059,100.121419107118,-81.6688574128928,-79.0182108787386,-0.102252818644047,0.125539734959602,-0.7109135389328
-378.709455053059,100.121419107118,-81.6688574128928,-79.0182108787386,-0.101659812033176,0.125160083174706,-0.710955560207367
-378.709455053059,100.121419107118,-81.6688574128928,-79.0182108787386,-0.101064905524254,0.124779000878334,-0.710994958877563
-378.709455053059,100.121419107118,-81.6688574128928,-79.0182108787386,-0.10046810656786,0.124396495521069,-0.71103173494339
-378.709455053059,100.121419107118,-81.6688574128928,-79.0182108787386,-0.0998694151639938,0.124012567102909,-0.711065888404846
-378.709455053059,100.121419107118,-81.6688574128928,-79.0182108787386,-0.0992688313126564,0.123627223074436,-0.711097419261932
-378.709455053059,100.121419107118,-81.6688574128928,-79.0182108787386,-0.0986663550138474,0.123240455985069,-0.711126387119293
-378.709455053059,100.121419107118,-81.6688574128928,-79.0182108787386,-0.0980619937181473,0.122852273285389,-0.711152732372284
-378.709455053059,100.121419107118,-81.6688574128928,-79.0182108787386,-0.0974557474255562,0.122462674975395,-0.711176455020905
-378.709455053059,100.121419107118,-81.6688574128928,-79.0182108787386,-0.0968476161360741,0.122071668505669,-0.7111976146698
-378.709455053059,100.121419107118,-81.6688574128928,-79.0182108787386,-0.0962376073002815,0.121679246425629,-0.711216151714325
-378.709455053059,100.121419107118,-81.6688574128928,-79.0182108787386,-0.0956257209181786,0.121285416185856,-0.711232125759125
-378.709455053059,100.121419107118,-81.6688574128928,-79.0182108787386,-0.0950119644403458,0.120890185236931,-0.711245536804199
-378.709455053059,100.121419107118,-81.6688574128928,-79.0182108787386,-0.0943963304162025,0.120493546128273,-0.711256325244904
-378.709455053059,100.121419107118,-81.6688574128928,-79.0182108787386,-0.0937788262963295,0.120095506310463,-0.711264550685883
-378.709455053059,100.121419107118,-81.6688574128928,-79.0182108787386,-0.0931594520807266,0.119696065783501,-0.711270213127136
-378.709455053059,100.121419107118,-81.6688574128928,-79.0182108787386,-0.0925382152199745,0.119295224547386,-0.711273312568665
-378.709455053059,100.121419107118,-81.6688574128928,-79.0182108787386,-0.0919151157140732,0.1188929900527,-0.711273849010468
-378.709455053059,100.121419107118,-81.6688574128928,-79.0182108787386,-0.0912901535630226,0.118489354848862,-0.711271822452545
-378.709455053059,100.121419107118,-81.6688574128928,-79.0182108787386,-0.0906633362174034,0.118084326386452,-0.711267232894897
-378.709455053059,100.121419107118,-81.6688574128928,-79.0182108787386,-0.090034656226635,0.117677912116051,-0.711260080337524
-378.709455053059,100.121419107118,-81.6688574128928,-79.0182108787386,-0.0894041284918785,0.117270104587078,-0.711250364780426
-378.709455053059,100.121419107118,-81.6688574128928,-79.0182108787386,-0.0887717455625534,0.116860911250114,-0.711238086223602
-378.709455053059,100.121419107118,-81.6688574128928,-79.0182108787386,-0.0881375148892403,0.11645033210516,-0.711223304271698
-378.709455053059,100.121419107118,-81.6688574128928,-79.0182108787386,-0.0875014364719391,0.116038367152214,-0.711205959320068
-378.709455053059,100.121419107118,-81.6688574128928,-79.0182108787386,-0.0868635103106499,0.115625023841858,-0.711186110973358
-378.709455053059,100.121419107118,-81.6688574128928,-79.0182108787386,-0.0862237438559532,0.115210294723511,-0.711163699626923
-378.709455053059,100.121419107118,-81.6688574128928,-79.0182108787386,-0.0855821371078491,0.114794187247753,-0.711138784885406
-378.709455053059,100.121419107118,-81.6688574128928,-79.0182108787386,-0.0849386900663376,0.114376708865166,-0.711111307144165
-378.709455053059,100.121419107118,-81.6688574128928,-79.0182108787386,-0.0842934101819992,0.113957852125168,-0.711081326007843
-378.709455053059,100.121419107118,-81.6688574128928,-79.0182108787386,-0.083646297454834,0.11353762447834,-0.71104884147644
-378.709455053059,100.121419107118,-81.6688574128928,-79.0182108787386,-0.0829973518848419,0.113116025924683,-0.711013853549957
-378.709455053059,100.121419107118,-81.6688574128928,-79.0182108787386,-0.082346573472023,0.112693056464195,-0.710976362228394
-378.709455053059,100.121419107118,-81.6688574128928,-79.0182108787386,-0.0816939696669579,0.112268723547459,-0.710936367511749
-378.709455053059,100.121419107118,-81.6688574128928,-79.0182108787386,-0.0810395404696465,0.111843027174473,-0.710893869400024
-378.709455053059,100.121419107118,-81.6688574128928,-79.0182108787386,-0.0803832933306694,0.111415967345238,-0.710848867893219
-378.709455053059,100.121419107118,-81.6688574128928,-79.0182108787386,-0.0797252282500267,0.110987544059753,-0.710801362991333
-378.709455053059,100.121419107118,-81.6688574128928,-79.0182108787386,-0.0790653452277184,0.1105577647686,-0.710751354694366
-378.709455053059,100.121419107118,-81.6688574128928,-79.0182108787386,-0.0784036442637444,0.110126622021198,-0.710698902606964
-378.709455053059,100.121419107118,-81.6688574128928,-79.0182108787386,-0.0777401328086853,0.109694130718708,-0.710643947124481
-378.709455053059,100.121419107118,-81.6688574128928,-79.0182108787386,-0.0770748108625412,0.109260283410549,-0.710586488246918
-378.709455053059,100.121419107118,-81.6688574128928,-79.0182108787386,-0.076407678425312,0.108825080096722,-0.710526585578918
-378.709455053059,100.121419107118,-81.6688574128928,-79.0182108787386,-0.0757387429475784,0.108388528227806,-0.710464179515839
-378.709455053059,100.121419107118,-81.6688574128928,-79.0182108787386,-0.0750680044293404,0.107950627803802,-0.710399329662323
-378.709455053059,100.121419107118,-81.6688574128928,-79.0182108787386,-0.0743954628705978,0.107511386275291,-0.710332036018372
-378.709455053059,100.121419107118,-81.6688574128928,-79.0182108787386,-0.0737211182713509,0.107070796191692,-0.710262298583984
-378.709455053059,100.121419107118,-81.6688574128928,-79.0182108787386,-0.07304497808218,0.106628865003586,-0.710190057754517
-378.709455053059,100.121419107118,-81.6688574128928,-79.0182108787386,-0.0723670423030853,0.106185592710972,-0.710115373134613
-378.709455053059,100.121419107118,-81.6688574128928,-79.0182108787386,-0.0716873183846474,0.10574097931385,-0.710038244724274
-378.709455053059,100.121419107118,-81.6688574128928,-79.0182108787386,-0.0710057988762856,0.105295032262802,-0.709958672523499
-378.709455053059,100.121419107118,-81.6688574128928,-79.0182108787386,-0.0703224912285805,0.104847751557827,-0.709876656532288
-378.709455053059,100.121419107118,-81.6688574128928,-79.0182108787386,-0.0696374028921127,0.104399137198925,-0.709792196750641
-378.709455053059,100.121419107118,-81.6688574128928,-79.0182108787386,-0.0689505264163017,0.103949189186096,-0.709705352783203
-378.709455053059,100.121419107118,-81.6688574128928,-79.0182108787386,-0.0682618692517281,0.103497914969921,-0.70961606502533
-378.709455053059,100.121419107118,-81.6688574128928,-79.0182108787386,-0.0675714388489723,0.103045307099819,-0.70952433347702
-378.709455053059,100.121419107118,-81.6688574128928,-79.0182108787386,-0.0668792277574539,0.102591380476952,-0.70943021774292
-378.709455053059,100.121419107118,-81.6688574128928,-79.0182108787386,-0.0661852434277534,0.102136127650738,-0.709333658218384
-378.709455053059,100.121419107118,-81.6688574128928,-79.0182108787386,-0.0654894858598709,0.101679548621178,-0.709234714508057
-378.709455053059,100.121419107118,-81.6688574128928,-79.0182108787386,-0.0647919625043869,0.101221650838852,-0.709133327007294
-378.709455053059,100.121419107118,-81.6688574128928,-79.0182108787386,-0.0640926659107208,0.100762434303761,-0.70902955532074
-378.709455053059,100.121419107118,-81.6688574128928,-79.0182108787386,-0.0633916035294533,0.100301906466484,-0.708923399448395
-378.709455053059,100.121419107118,-81.6688574128928,-79.0182108787386,-0.0626887828111649,0.099840059876442,-0.708814799785614
-378.709455053059,100.121419107118,-81.6688574128928,-79.0182108787386,-0.0619842000305653,0.0993769019842148,-0.708703815937042
-378.709455053059,100.121419107118,-81.6688574128928,-79.0182108787386,-0.0612778589129448,0.0989124327898026,-0.708590447902679
-378.709455053059,100.121419107118,-81.6688574128928,-79.0182108787386,-0.0605697594583035,0.0984466522932053,-0.708474695682526
-378.709455053059,100.121419107118,-81.6688574128928,-79.0182108787386,-0.0598599053919315,0.0979795679450035,-0.708356559276581
-378.709455053059,100.121419107118,-81.6688574128928,-79.0182108787386,-0.0591483004391193,0.0975111797451973,-0.708236038684845
-378.709455053059,100.121419107118,-81.6688574128928,-79.0182108787386,-0.0584349483251572,0.0970414876937866,-0.708113133907318
-378.709455053059,100.121419107118,-81.6688574128928,-79.0182108787386,-0.0577198453247547,0.0965704917907715,-0.707987904548645
-378.709455053059,100.121419107118,-81.6688574128928,-79.0182108787386,-0.0570029988884926,0.0960981920361519,-0.707860291004181
-378.709455053059,100.121419107118,-81.6688574128928,-79.0182108787386,-0.0562844090163708,0.0956245958805084,-0.707730293273926
-378.709455053059,100.121419107118,-81.6688574128928,-79.0182108787386,-0.0555640794336796,0.0951497033238411,-0.707597970962524
-378.709455053059,100.121419107118,-81.6688574128928,-79.0182108787386,-0.054842010140419,0.0946735218167305,-0.707463264465332
-378.709455053059,100.121419107118,-81.6688574128928,-79.0182108787386,-0.0541182048618793,0.094196043908596,-0.707326233386993
-378.709455053059,100.121419107118,-81.6688574128928,-79.0182108787386,-0.0533926673233509,0.0937172770500183,-0.707186818122864
-378.709455053059,100.121419107118,-81.6688574128928,-79.0182108787386,-0.0526653975248337,0.0932372212409973,-0.707045078277588
-378.709455053059,100.121419107118,-81.6688574128928,-79.0182108787386,-0.051936399191618,0.0927558764815331,-0.706900954246521
-378.709455053059,100.121419107118,-81.6688574128928,-79.0182108787386,-0.0512056723237038,0.0922732502222061,-0.706754505634308
-378.709455053059,100.121419107118,-81.6688574128928,-79.0182108787386,-0.0504732206463814,0.0917893350124359,-0.706605732440948
-378.709455053059,100.121419107118,-81.6688574128928,-79.0182108787386,-0.0497390478849411,0.091304138302803,-0.706454634666443
-378.709455053059,100.121419107118,-81.6688574128928,-79.0182108787386,-0.0490031540393829,0.0908176600933075,-0.706301212310791
-378.709455053059,100.121419107118,-81.6688574128928,-79.0182108787386,-0.0482655391097069,0.0903299078345299,-0.706145465373993
-378.709455053059,100.121419107118,-81.6688574128928,-79.0182108787386,-0.0475262105464935,0.0898408815264702,-0.705987393856049
-378.709455053059,100.121419107118,-81.6688574128928,-79.0182108787386,-0.0467851683497429,0.0893505811691284,-0.705826997756958
-378.709455053059,100.121419107118,-81.6688574128928,-79.0182108787386,-0.046042412519455,0.0888590067625046,-0.705664277076721
-378.709455053059,100.121419107118,-81.6688574128928,-79.0182108787386,-0.04529794678092,0.0883661583065987,-0.705499291419983
-378.709455053059,100.121419107118,-81.6688574128928,-79.0182108787386,-0.0445517748594284,0.0878720432519913,-0.705331981182098
-378.709455053059,100.121419107118,-81.6688574128928,-79.0182108787386,-0.0438038967549801,0.0873766615986824,-0.705162346363068
-378.709455053059,100.121419107118,-81.6688574128928,-79.0182108787386,-0.0430543161928654,0.0868800133466721,-0.704990446567535
-378.709455053059,100.121419107118,-81.6688574128928,-79.0182108787386,-0.0423030368983746,0.0863821059465408,-0.704816222190857
-378.709455053059,100.121419107118,-81.6688574128928,-79.0182108787386,-0.0415500588715076,0.0858829319477081,-0.704639732837677
-378.709455053059,100.121419107118,-81.6688574128928,-79.0182108787386,-0.0407953858375549,0.0853824988007545,-0.704460978507996
-378.709455053059,100.121419107118,-81.6688574128928,-79.0182108787386,-0.0400390177965164,0.0848808065056801,-0.704279899597168
-378.709455053059,100.121419107118,-81.6688574128928,-79.0182108787386,-0.0392809584736824,0.0843778625130653,-0.704096555709839
-378.709455053059,100.121419107118,-81.6688574128928,-79.0182108787386,-0.0385212078690529,0.0838736593723297,-0.703910946846008
-378.709455053059,100.121419107118,-81.6688574128928,-79.0182108787386,-0.0377597697079182,0.0833682045340538,-0.703723073005676
-378.709455053059,100.121419107118,-81.6688574128928,-79.0182108787386,-0.0369966477155685,0.0828614979982376,-0.703532934188843
-378.709455053059,100.121419107118,-81.6688574128928,-79.0182108787386,-0.036231841892004,0.0823535472154617,-0.703340530395508
-378.709455053059,100.121419107118,-81.6688574128928,-79.0182108787386,-0.0354653559625149,0.0818443447351456,-0.703145861625671
-378.709455053059,100.121419107118,-81.6688574128928,-79.0182108787386,-0.0346971899271011,0.0813338980078697,-0.702948927879334
-378.709455053059,100.121419107118,-81.6688574128928,-79.0182108787386,-0.0339273475110531,0.0808222070336342,-0.702749729156494
-378.709455053059,100.121419107118,-81.6688574128928,-79.0182108787386,-0.033155832439661,0.0803092792630196,-0.702548265457153
-378.709455053059,100.121419107118,-81.6688574128928,-79.0182108787386,-0.032382644712925,0.0797951072454453,-0.702344596385956
-378.709455053059,100.121419107118,-81.6688574128928,-79.0182108787386,-0.0316077880561352,0.0792796984314919,-0.702138662338257
-378.709455053059,100.121419107118,-81.6688574128928,-79.0182108787386,-0.0308312624692917,0.0787630528211594,-0.701930522918701
-378.709455053059,100.121419107118,-81.6688574128928,-79.0182108787386,-0.0300530716776848,0.0782451704144478,-0.701720118522644
-378.709455053059,100.121419107118,-81.6688574128928,-79.0182108787386,-0.0292732175439596,0.0777260586619377,-0.70150750875473
-378.709455053059,100.121419107118,-81.6688574128928,-79.0182108787386,-0.0284917037934065,0.0772057175636292,-0.701292634010315
-378.709455053059,100.121419107118,-81.6688574128928,-79.0182108787386,-0.0277085304260254,0.0766841471195221,-0.701075553894043
-378.709455053059,100.121419107118,-81.6688574128928,-79.0182108787386,-0.0269237011671066,0.0761613473296165,-0.700856268405914
-378.709455053059,100.121419107118,-81.6688574128928,-79.0182108787386,-0.0261372160166502,0.0756373181939125,-0.700634717941284
-378.709455053059,100.121419107118,-81.6688574128928,-79.0182108787386,-0.0253490786999464,0.0751120671629906,-0.700410962104797
-378.709455053059,100.121419107118,-81.6688574128928,-79.0182108787386,-0.0245592910796404,0.0745855942368507,-0.700185000896454
-378.709455053059,100.121419107118,-81.6688574128928,-79.0182108787386,-0.0237678568810225,0.074057899415493,-0.699956834316254
-378.709455053059,100.121419107118,-81.6688574128928,-79.0182108787386,-0.0229747761040926,0.073528990149498,-0.699726462364197
-378.709455053059,100.121419107118,-81.6688574128928,-79.0182108787386,-0.0221800524741411,0.0729988589882851,-0.699493885040283
-378.709455053059,100.121419107118,-81.6688574128928,-79.0182108787386,-0.0213836878538132,0.0724675133824348,-0.699259161949158
-378.709455053059,100.121419107118,-81.6688574128928,-79.0182108787386,-0.0205856822431087,0.0719349607825279,-0.699022233486176
-378.709455053059,100.121419107118,-81.6688574128928,-79.0182108787386,-0.0197860412299633,0.0714011937379837,-0.698783099651337
-378.709455053059,100.121419107118,-81.6688574128928,-79.0182108787386,-0.0189716853201389,0.0709061846137047,-0.698534548282623
-378.709455053059,100.121419107118,-81.6688574128928,-79.0182108787386,-0.018129538744688,0.0704898908734322,-0.698269248008728
-378.709455053059,100.121419107118,-81.6688574128928,-79.0182108787386,-0.0172944813966751,0.0701138079166412,-0.697984337806702
-378.709455053059,100.121419107118,-81.6688574128928,-79.0182108787386,-0.0165013913065195,0.069739431142807,-0.69767689704895
-378.709455053059,100.121419107118,-81.6688574128928,-79.0182108787386,-0.0157502740621567,0.0693667531013489,-0.697346985340118
-378.709455053059,100.121419107118,-81.6688574128928,-79.0182108787386,-0.015041128732264,0.0689957812428474,-0.696994543075562
-378.709455053059,100.121419107118,-81.6688574128928,-79.0182108787386,-0.0143739590421319,0.0686265230178833,-0.69661957025528
-378.709455053059,100.121419107118,-81.6688574128928,-79.0182108787386,-0.0137088028714061,0.0682953000068665,-0.696222841739655
-378.709455053059,100.121419107118,-81.6688574128928,-79.0182108787386,-0.0130056980997324,0.0680384486913681,-0.695805072784424
-378.709455053059,100.121419107118,-81.6688574128928,-79.0182108787386,-0.012264646589756,0.0678559765219688,-0.695366263389587
-378.709455053059,100.121419107118,-81.6688574128928,-79.0182108787386,-0.0114856511354446,0.0677478760480881,-0.694906413555145
-378.709455053059,100.121419107118,-81.6688574128928,-79.0182108787386,-0.0106687135994434,0.0677141547203064,-0.694425523281097
-378.709455053059,100.121419107118,-81.6688574128928,-79.0182108787386,-0.00986179243773222,0.0677395537495613,-0.693919956684113
-378.709455053059,100.121419107118,-81.6688574128928,-79.0182108787386,-0.00911284796893597,0.0678088217973709,-0.693386077880859
-378.709455053059,100.121419107118,-81.6688574128928,-79.0182108787386,-0.00842188112437725,0.0679219514131546,-0.692823886871338
-378.709455053059,100.121419107118,-81.6688574128928,-79.0182108787386,-0.0077888946980238,0.068078950047493,-0.692233443260193
-378.709455053059,100.121419107118,-81.6688574128928,-79.0182108787386,-0.00721389101818204,0.068279817700386,-0.69161468744278
-378.709455053059,100.121419107118,-81.6688574128928,-79.0182108787386,-0.00669687194749713,0.068498395383358,-0.690988719463348
-378.709455053059,100.121419107118,-81.6688574128928,-79.0182108787386,-0.0062378398142755,0.0687085315585136,-0.69037663936615
-378.709455053059,100.121419107118,-81.6688574128928,-79.0182108787386,-0.00583679648116231,0.068910226225853,-0.689778447151184
-378.709455053059,100.121419107118,-81.6688574128928,-79.0182108787386,-0.00549374427646399,0.069103479385376,-0.689194083213806
-378.709455053059,100.121419107118,-81.6688574128928,-79.0182108787386,-0.00522176455706358,0.0692483335733414,-0.688630878925323
-378.709455053059,100.121419107118,-81.6688574128928,-79.0182108787386,-0.00501286657527089,0.0693346112966537,-0.688128769397736
-378.709455053059,100.121419107118,-81.6688574128928,-79.0182108787386,-0.00481110252439976,0.0694306194782257,-0.687723398208618
-378.709455053059,100.121419107118,-81.6688574128928,-79.0182108787386,-0.00458159716799855,0.0695748701691628,-0.68741762638092
-378.709455053059,100.121419107118,-81.6688574128928,-79.0182108787386,-0.00432435236871243,0.0697673633694649,-0.687211513519287
-378.709455053059,100.121419107118,-81.6688574128928,-79.0182108787386,-0.00403937045484781,0.0700081065297127,-0.687105059623718
-378.709455053059,100.121419107118,-81.6688574128928,-79.0182108787386,-0.00374772539362311,0.0702571347355843,-0.687123656272888
-378.709455053059,100.121419107118,-81.6688574128928,-79.0182108787386,-0.0035104553680867,0.0704381540417671,-0.687292039394379
-378.709455053059,100.121419107118,-81.6688574128928,-79.0182108787386,-0.00336752645671368,0.0705148279666901,-0.687609493732452
-378.709455053059,100.121419107118,-81.6688574128928,-79.0182108787386,-0.00331894098781049,0.0704871714115143,-0.688075959682465
-378.709455053059,100.121419107118,-81.6688574128928,-79.0182108787386,-0.00336470128968358,0.0703551769256592,-0.68869149684906
-378.709455053059,100.121419107118,-81.6688574128928,-79.0182108787386,-0.00348083069548011,0.0701529979705811,-0.689468443393707
-378.709455053059,100.121419107118,-81.6688574128928,-79.0182108787386,-0.00359539594501257,0.0699300467967987,-0.690422832965851
-378.709455053059,100.121419107118,-81.6688574128928,-79.0182108787386,-0.00366044254042208,0.0697015896439552,-0.691558241844177
-378.709455053059,100.121419107118,-81.6688574128928,-79.0182108787386,-0.0036759723443538,0.0694676265120506,-0.692874729633331
-378.709455053059,100.121419107118,-81.6688574128928,-79.0182108787386,-0.0036419874522835,0.0692281574010849,-0.694372236728668
-378.709455053059,100.121419107118,-81.6688574128928,-79.0182108787386,-0.00359409465454519,0.0689926296472549,-0.696011602878571
-378.709455053059,100.121419107118,-81.6688574128928,-79.0182108787386,-0.0035679005086422,0.0687966495752335,-0.697732448577881
-378.709455053059,100.121419107118,-81.6688574128928,-79.0182108787386,-0.00356340687721968,0.0686663761734962,-0.699513733386993
-378.709455053059,100.121419107118,-81.6688574128928,-79.0182108787386,-0.00358061585575342,0.0686018094420433,-0.701355457305908
-378.709455053059,100.121419107118,-81.6688574128928,-79.0182108787386,-0.00361952953971922,0.0686029568314552,-0.70325767993927
-378.709455053059,100.121419107118,-81.6688574128928,-79.0182108787386,-0.00372229400090873,0.0686763525009155,-0.705237030982971
-378.709455053059,100.121419107118,-81.6688574128928,-79.0182108787386,-0.00395212741568685,0.0687987506389618,-0.707277595996857
-378.709455053059,100.121419107118,-81.6688574128928,-79.0182108787386,-0.00433010375127196,0.0689403638243675,-0.709346652030945
-378.709455053059,100.121419107118,-81.6688574128928,-79.0182108787386,-0.00485622556880116,0.0691011920571327,-0.711444199085236
-378.709455053059,100.121419107118,-81.6688574128928,-79.0182108787386,-0.00553049426525831,0.0692812353372574,-0.713570237159729
-378.709455053059,100.121419107118,-81.6688574128928,-79.0182108787386,-0.00633474672213197,0.0694863125681877,-0.715720415115356
-378.709455053059,100.121419107118,-81.6688574128928,-79.0182108787386,-0.00722974771633744,0.0697622001171112,-0.71786493062973
-378.709455053059,100.121419107118,-81.6688574128928,-79.0182108787386,-0.00819442700594664,0.0701488628983498,-0.719978392124176
-378.709455053059,100.121419107118,-81.6688574128928,-79.0182108787386,-0.00922878738492727,0.0706463009119034,-0.722060739994049
-378.709455053059,100.121419107118,-81.6688574128928,-79.0182108787386,-0.0103328302502632,0.0712545216083527,-0.724112033843994
-378.709455053059,100.121419107118,-81.6688574128928,-79.0182108787386,-0.0115007450804114,0.0719531774520874,-0.726167857646942
-378.709455053059,100.121419107118,-81.6688574128928,-79.0182108787386,-0.0127507001161575,0.0726877674460411,-0.728251516819
-378.709455053059,100.121419107118,-81.6688574128928,-79.0182108787386,-0.0141066750511527,0.0734241530299187,-0.730350613594055
-378.709455053059,100.121419107118,-81.6688574128928,-79.0182108787386,-0.0155686717480421,0.0741623267531395,-0.732465147972107
-378.709455053059,100.121419107118,-81.6688574128928,-79.0182108787386,-0.0171366930007935,0.0749022960662842,-0.734595119953156
-378.709455053059,100.121419107118,-81.6688574128928,-79.0182108787386,-0.0188005678355694,0.0756149962544441,-0.736673712730408
-378.709455053059,100.121419107118,-81.6688574128928,-79.0182108787386,-0.0205145217478275,0.0762619227170944,-0.738673269748688
-378.709455053059,100.121419107118,-81.6688574128928,-79.0182108787386,-0.0222429521381855,0.0768336281180382,-0.740633070468903
-378.709455053059,100.121419107118,-81.6688574128928,-79.0182108787386,-0.0239858608692884,0.0773301124572754,-0.742553114891052
-378.709455053059,100.121419107118,-81.6688574128928,-79.0182108787386,-0.0257432498037815,0.0777513757348061,-0.744433403015137
-378.709455053059,100.121419107118,-81.6688574128928,-79.0182108787386,-0.0275093074887991,0.0781519189476967,-0.746312499046326
-378.709455053059,100.121419107118,-81.6688574128928,-79.0182108787386,-0.0292360801249743,0.0785797014832497,-0.748212158679962
-378.709455053059,100.121419107118,-81.6688574128928,-79.0182108787386,-0.0308814272284508,0.0790281817317009,-0.750115633010864
-378.709455053059,100.121419107118,-81.6688574128928,-79.0182108787386,-0.0324453487992287,0.079497367143631,-0.752022981643677
-378.709455053059,100.121419107118,-81.6688574128928,-79.0182108787386,-0.0339278466999531,0.0799872577190399,-0.7539342045784
-378.709455053059,100.121419107118,-81.6688574128928,-79.0182108787386,-0.0353267453610897,0.0804840475320816,-0.75582093000412
-378.709455053059,100.121419107118,-81.6688574128928,-79.0182108787386,-0.0366580300033093,0.0809681192040443,-0.757659196853638
-378.709455053059,100.121419107118,-81.6688574128928,-79.0182108787386,-0.0379398688673973,0.0814336612820625,-0.759453415870667
-378.709455053059,100.121419107118,-81.6688574128928,-79.0182108787386,-0.0391722656786442,0.0818806737661362,-0.761203527450562
-378.709455053059,100.121419107118,-81.6688574128928,-79.0182108787386,-0.0403552204370499,0.0823091641068459,-0.762909531593323
-378.709455053059,100.121419107118,-81.6688574128928,-79.0182108787386,-0.0414865575730801,0.0827256664633751,-0.764588952064514
-378.709455053059,100.121419107118,-81.6688574128928,-79.0182108787386,-0.0425699092447758,0.0831570699810982,-0.766223549842834
-378.709455053059,100.121419107118,-81.6688574128928,-79.0182108787386,-0.0436110943555832,0.0836237221956253,-0.767777740955353
-378.709455053059,100.121419107118,-81.6688574128928,-79.0182108787386,-0.0446101129055023,0.0841256305575371,-0.769251525402069
-378.709455053059,100.121419107118,-81.6688574128928,-79.0182108787386,-0.0455669648945332,0.0846627876162529,-0.770644903182983
-378.709455053059,100.121419107118,-81.6688574128928,-79.0182108787386,-0.0464649423956871,0.085233747959137,-0.771929562091827
-378.709455053059,100.121419107118,-81.6688574128928,-79.0182108787386,-0.0472975075244904,0.0858661234378815,-0.773144006729126
-378.709455053059,100.121419107118,-81.6688574128928,-79.0182108787386,-0.048074834048748,0.086588978767395,-0.774355113506317
-378.709455053059,100.121419107118,-81.6688574128928,-79.0182108787386,-0.0487969256937504,0.0874023213982582,-0.775562882423401
-378.709455053059,100.121419107118,-81.6688574128928,-79.0182108787386,-0.0494637861847878,0.0883061438798904,-0.776767253875732
-378.709455053059,100.121419107118,-81.6688574128928,-79.0182108787386,-0.0500935800373554,0.0893062651157379,-0.77793562412262
-378.709455053059,100.121419107118,-81.6688574128928,-79.0182108787386,-0.0507102869451046,0.0903540030121803,-0.778996706008911
-378.709455053059,100.121419107118,-81.6688574128928,-79.0182108787386,-0.0513197258114815,0.0913948640227318,-0.779912054538727
-378.709455053059,100.121419107118,-81.6688574128928,-79.0182108787386,-0.0519218966364861,0.0924288481473923,-0.780681610107422
-378.709455053059,100.121419107118,-81.6688574128928,-79.0182108787386,-0.0525167994201183,0.0934559628367424,-0.781305432319641
-378.709455053059,100.121419107118,-81.6688574128928,-79.0182108787386,-0.0530957207083702,0.0944376960396767,-0.781816899776459
-378.709455053059,100.121419107118,-81.6688574128928,-79.0182108787386,-0.0536521188914776,0.0953493416309357,-0.782277822494507
-378.709455053059,100.121419107118,-81.6688574128928,-79.0182108787386,-0.0541881769895554,0.0962047055363655,-0.782716512680054
-378.709455053059,100.121419107118,-81.6688574128928,-79.0182108787386,-0.0547038987278938,0.0970037952065468,-0.783132970333099
-378.709455053059,100.121419107118,-81.6688574128928,-79.0182108787386,-0.055199284106493,0.0977466031908989,-0.783527255058289
-378.709455053059,100.121419107118,-81.6688574128928,-79.0182108787386,-0.0557012222707272,0.0984745547175407,-0.783925473690033
-378.709455053059,100.121419107118,-81.6688574128928,-79.0182108787386,-0.0562387779355049,0.0992225334048271,-0.784336388111115
-378.709455053059,100.121419107118,-81.6688574128928,-79.0182108787386,-0.0568141341209412,0.0999839901924133,-0.784742534160614
-378.709455053059,100.121419107118,-81.6688574128928,-79.0182108787386,-0.0574272945523262,0.100758939981461,-0.785143911838531
-378.709455053059,100.121419107118,-81.6688574128928,-79.0182108787386,-0.05807825922966,0.101547375321388,-0.785540521144867
-378.709455053059,100.121419107118,-81.6688574128928,-79.0182108787386,-0.0587510466575623,0.102328956127167,-0.785942554473877
-378.709455053059,100.121419107118,-81.6688574128928,-79.0182108787386,-0.0594463832676411,0.103084787726402,-0.786388516426086
-378.709455053059,100.121419107118,-81.6688574128928,-79.0182108787386,-0.0601809844374657,0.103816330432892,-0.786906778812408
-378.709455053059,100.121419107118,-81.6688574128928,-79.0182108787386,-0.0609548501670361,0.104523584246635,-0.787497282028198
-378.709455053059,100.121419107118,-81.6688574128928,-79.0182108787386,-0.0617679841816425,0.105206549167633,-0.788160085678101
-378.709455053059,100.121419107118,-81.6688574128928,-79.0182108787386,-0.0626080334186554,0.105887025594711,-0.78885954618454
-378.709455053059,100.121419107118,-81.6688574128928,-79.0182108787386,-0.0634444877505302,0.106581002473831,-0.789592802524567
-378.709455053059,100.121419107118,-81.6688574128928,-79.0182108787386,-0.0642591789364815,0.107282668352127,-0.790392518043518
-378.709455053059,100.121419107118,-81.6688574128928,-79.0182108787386,-0.0650521069765091,0.107992023229599,-0.791258752346039
-378.709455053059,100.121419107118,-81.6688574128928,-79.0182108787386,-0.0658232793211937,0.108709067106247,-0.792191445827484
-378.709455053059,100.121419107118,-81.6688574128928,-79.0182108787386,-0.0665952190756798,0.109431624412537,-0.793165922164917
-378.709455053059,100.121419107118,-81.6688574128928,-79.0182108787386,-0.0673991814255714,0.110196024179459,-0.794124066829681
-378.709455053059,100.121419107118,-81.6688574128928,-79.0182108787386,-0.0682438760995865,0.111040785908699,-0.795032441616058
-378.709455053059,100.121419107118,-81.6688574128928,-79.0182108787386,-0.0691293105483055,0.111965909600258,-0.795891046524048
-378.709455053059,100.121419107118,-81.6688574128928,-79.0182108787386,-0.0700554847717285,0.112971395254135,-0.79669988155365
-378.709455053059,100.121419107118,-81.6688574128928,-79.0182108787386,-0.0709984302520752,0.114021636545658,-0.797427713871002
-378.709455053059,100.121419107118,-81.6688574128928,-79.0182108787386,-0.0719072744250298,0.115039616823196,-0.798017144203186
-378.709455053059,100.121419107118,-81.6688574128928,-79.0182108787386,-0.0727551430463791,0.115983918309212,-0.79844206571579
-378.709455053059,100.121419107118,-81.6688574128928,-79.0182108787386,-0.0735420361161232,0.116854548454285,-0.798702418804169
-378.709455053059,100.121419107118,-81.6688574128928,-79.0182108787386,-0.0742679536342621,0.117651507258415,-0.798798203468323
-378.709455053059,100.121419107118,-81.6688574128928,-79.0182108787386,-0.0749299898743629,0.118364617228508,-0.798749089241028
-378.709455053059,100.121419107118,-81.6688574128928,-79.0182108787386,-0.075541228055954,0.119004055857658,-0.798564493656158
-378.709455053059,100.121419107118,-81.6688574128928,-79.0182108787386,-0.0761176571249962,0.119590170681477,-0.798234224319458
-378.709455053059,100.121419107118,-81.6688574128928,-79.0182108787386,-0.0766592770814896,0.120122969150543,-0.797758340835571
-378.709455053059,100.121419107118,-81.6688574128928,-79.0182108787386,-0.0771660879254341,0.120602443814278,-0.797136843204498
-378.709455053059,100.121419107118,-81.6688574128928,-79.0182108787386,-0.0776322782039642,0.121000990271568,-0.796361684799194
-378.709455053059,100.121419107118,-81.6688574128928,-79.0182108787386,-0.0780643969774246,0.121269196271896,-0.795460522174835
-378.709455053059,100.121419107118,-81.6688574128928,-79.0182108787386,-0.0784747898578644,0.121385268867016,-0.794468939304352
-378.709455053059,100.121419107118,-81.6688574128928,-79.0182108787386,-0.0788634642958641,0.121349208056927,-0.793386995792389
-378.709455053059,100.121419107118,-81.6688574128928,-79.0182108787386,-0.0792304202914238,0.121161013841629,-0.792214632034302
-378.709455053059,100.121419107118,-81.6688574128928,-79.0182108787386,-0.0796083584427834,0.120806880295277,-0.791008532047272
-378.709455053059,100.121419107118,-81.6688574128928,-79.0182108787386,-0.0800074562430382,0.120275191962719,-0.789850115776062
-378.709455053059,100.121419107118,-81.6688574128928,-79.0182108787386,-0.0804051905870438,0.11956812441349,-0.78876405954361
-378.709455053059,100.121419107118,-81.6688574128928,-79.0182108787386,-0.0808015614748001,0.118685677647591,-0.787750363349915
-378.709455053059,100.121419107118,-81.6688574128928,-79.0182108787386,-0.0811965689063072,0.11762785166502,-0.786809086799622
-378.709455053059,100.121419107118,-81.6688574128928,-79.0182108787386,-0.0815415307879448,0.116428807377815,-0.785895824432373
-378.709455053059,100.121419107118,-81.6688574128928,-79.0182108787386,-0.081811748445034,0.115158297121525,-0.784997582435608
-378.709455053059,100.121419107118,-81.6688574128928,-79.0182108787386,-0.0820311978459358,0.113851927220821,-0.784145534038544
-378.709455053059,100.121419107118,-81.6688574128928,-79.0182108787386,-0.0821998789906502,0.112509697675705,-0.783339738845825
-378.709455053059,100.121419107118,-81.6688574128928,-79.0182108787386,-0.0823177993297577,0.111131608486176,-0.782580196857452
-378.709455053059,100.121419107118,-81.6688574128928,-79.0182108787386,-0.0823820531368256,0.109716214239597,-0.781873404979706
-378.709455053059,100.121419107118,-81.6688574128928,-79.0182108787386,-0.0823926404118538,0.108272232115269,-0.781206369400024
-378.709455053059,100.121419107118,-81.6688574128928,-79.0182108787386,-0.0823524743318558,0.106809839606285,-0.780559420585632
-378.709455053059,100.121419107118,-81.6688574128928,-79.0182108787386,-0.0822615548968315,0.105329036712646,-0.77993255853653
-378.709455053059,100.121419107118,-81.6688574128928,-79.0182108787386,-0.082119882106781,0.103829823434353,-0.779325783252716
-378.709455053059,100.121419107118,-81.6688574128928,-79.0182108787386,-0.0819267332553864,0.102363064885139,-0.778763830661774
-378.709455053059,100.121419107118,-81.6688574128928,-79.0182108787386,-0.0816871970891953,0.101007238030434,-0.778279364109039
-378.709455053059,100.121419107118,-81.6688574128928,-79.0182108787386,-0.0814070850610733,0.0997899547219276,-0.777880370616913
-378.709455053059,100.121419107118,-81.6688574128928,-79.0182108787386,-0.0810863971710205,0.0987112149596214,-0.777566909790039
-378.709455053059,100.121419107118,-81.6688574128928,-79.0182108787386,-0.0807251408696175,0.0977710261940956,-0.777338922023773
-378.709455053059,100.121419107118,-81.6688574128928,-79.0182108787386,-0.0803320407867432,0.0969148874282837,-0.777193546295166
-378.709455053059,100.121419107118,-81.6688574128928,-79.0182108787386,-0.0798831135034561,0.0961021184921265,-0.777071237564087
-378.709455053059,100.121419107118,-81.6688574128928,-79.0182108787386,-0.079345665872097,0.0953465178608894,-0.77691525220871
-378.709455053059,100.121419107118,-81.6688574128928,-79.0182108787386,-0.0787196978926659,0.0946480929851532,-0.776725649833679
-378.709455053059,100.121419107118,-81.6688574128928,-79.0182108787386,-0.0780052095651627,0.0940068438649178,-0.776502370834351
-378.709455053059,100.121419107118,-81.6688574128928,-79.0182108787386,-0.0772087499499321,0.093446746468544,-0.776247620582581
-378.709455053059,100.121419107118,-81.6688574128928,-79.0182108787386,-0.0763855427503586,0.0929576307535172,-0.776007950305939
-378.709455053059,100.121419107118,-81.6688574128928,-79.0182108787386,-0.0755842700600624,0.0925053507089615,-0.775827646255493
-378.709455053059,100.121419107118,-81.6688574128928,-79.0182108787386,-0.0748049318790436,0.092089906334877,-0.775706708431244
-378.709455053059,100.121419107118,-81.6688574128928,-79.0182108787386,-0.0740475356578827,0.0917112976312637,-0.775645196437836
-378.709455053059,100.121419107118,-81.6688574128928,-79.0182108787386,-0.073337510228157,0.0914000496268272,-0.775676488876343
-378.709455053059,100.121419107118,-81.6688574128928,-79.0182108787386,-0.0727031975984573,0.0911881327629089,-0.775827467441559
-378.709455053059,100.121419107118,-81.6688574128928,-79.0182108787386,-0.0721475034952164,0.0910769999027252,-0.776091575622559
-378.709455053059,100.121419107118,-81.6688574128928,-79.0182108787386,-0.0716704353690147,0.0910666510462761,-0.776468873023987
-378.709455053059,100.121419107118,-81.6688574128928,-79.0182108787386,-0.0712719932198524,0.0911570936441422,-0.776959359645844
-378.709455053059,100.121419107118,-81.6688574128928,-79.0182108787386,-0.0709383711218834,0.0913403332233429,-0.77757316827774
-378.432067787376,100.146485183367,-81.5334982604656,-78.6745362512703,-0.07065649330616,0.0915575101971626,-0.778295814990997
-378.126800895606,100.176164113925,-81.4152771953329,-78.3684178202058,-0.0704270899295807,0.0917577669024467,-0.779102563858032
-377.816244497312,100.213241018376,-81.3256196090241,-78.1228853286228,-0.0702501609921455,0.0919411107897758,-0.779993414878845
-377.526823026831,100.258499211602,-81.2762682650559,-77.9482135849714,-0.0701257064938545,0.0921075344085693,-0.780968368053436
-377.283136154239,100.309153574021,-81.2707142552846,-77.8504257528258,-0.0700849741697311,0.092261403799057,-0.782008588314056
-377.10174534756,100.360504216336,-81.3114965556056,-77.8288132247067,-0.0701504945755005,0.0924615785479546,-0.783098042011261
-376.987662933937,100.405066129667,-81.3887766344239,-77.8837303043536,-0.0703135505318642,0.0927625522017479,-0.784239649772644
-376.933012399287,100.434570990251,-81.4898596122623,-78.0087995244529,-0.0705741420388222,0.093164324760437,-0.785433411598206
-376.918067810987,100.441533789209,-81.5987182037805,-78.2004778476079,-0.0709322690963745,0.0936669036746025,-0.786679327487946
-376.916127555319,100.423256441944,-81.6977382637038,-78.4449474279719,-0.0713864788413048,0.0942477658390999,-0.787943243980408
-376.898988630251,100.380348193366,-81.7742249125548,-78.7269732047397,-0.0719287842512131,0.0948604047298431,-0.789188861846924
-376.843183181514,100.319510737471,-81.8194504206929,-79.0224625236145,-0.0725526437163353,0.0954808443784714,-0.790413975715637
-376.734621257231,100.250143852853,-81.8326213581506,-79.2966936181098,-0.073258064687252,0.0961090847849846,-0.791618645191193
-376.571431896581,100.184954647609,-81.8207199086406,-79.5209678853133,-0.0740450471639633,0.0967451333999634,-0.792802810668945
-376.363755245256,100.132472550464,-81.7972343816075,-79.6651695073541,-0.0749382972717285,0.0974354892969131,-0.793964326381683
-376.13062428743,100.102619549932,-81.7772399464307,-79.7101660822906,-0.0759370923042297,0.0981961414217949,-0.795067548751831
-375.895183501427,100.097223380739,-81.7727967386136,-79.6517059652471,-0.0770159959793091,0.0989965721964836,-0.796079099178314
-375.679122173823,100.112541538447,-81.7951714636924,-79.5025440908511,-0.0781750157475472,0.0998367890715599,-0.796998977661133
-375.497269401509,100.140044594331,-81.8489660154777,-79.2981108330684,-0.0794141590595245,0.100716784596443,-0.797827184200287
-375.355145673825,100.169462419928,-81.9308479881066,-79.0851742855339,-0.0807464942336082,0.101569719612598,-0.798604428768158
-375.247553877377,100.188436047088,-82.0308201639907,-78.9136912755395,-0.0821989178657532,0.10233673453331,-0.799361169338226
-375.161097008741,100.188610117062,-82.1363463496461,-78.8329100228974,-0.0837852358818054,0.103025823831558,-0.80008727312088
-375.076765182027,100.165197705566,-82.2310818877458,-78.8711748267805,-0.085505448281765,0.103636987507343,-0.800782799720764
-374.975409921654,100.11993951234,-82.3058229906687,-79.041594925556,-0.0873595550656319,0.104170233011246,-0.801447689533234
-374.841001020079,100.058318741562,-82.3510484988067,-79.3289352584186,-0.0893700867891312,0.104651719331741,-0.802059412002563
-374.664437754288,99.9887777869695,-82.3646954942448,-79.6892621616508,-0.0915283262729645,0.105103239417076,-0.802614390850067
-374.443641278923,99.9224571268952,-82.3491442668851,-80.0673042518659,-0.0938030332326889,0.105520442128181,-0.803131461143494
-374.183993493633,99.8665806652578,-82.3139159763355,-80.3978696409668,-0.0961942002177238,0.105903327465057,-0.803610682487488
-373.895264971605,99.8249779414841,-82.2671036082628,-80.6249783380876,-0.0987018346786499,0.106251895427704,-0.804051995277405
-373.589051050283,99.7961693607957,-82.2215607281378,-80.7029251608124,-0.101339019834995,0.106538541615009,-0.804417669773102
-373.276462003194,99.7758902088307,-82.1882366695097,-80.6171836558151,-0.104120284318924,0.106758177280426,-0.804704070091248
-372.965720818647,99.7567425116964,-82.1722093841696,-80.3755485053684,-0.107047088444233,0.106933325529099,-0.804945290088654
-372.661747430655,99.7308060855781,-82.1764939059932,-80.0127414759586,-0.110119432210922,0.107063993811607,-0.805141389369965
-372.366482094888,99.6930329012313,-82.2004554910067,-79.5790736986172,-0.113337323069572,0.107150182127953,-0.805292367935181
-372.08064085808,99.6425526087863,-82.2431420232493,-79.1393827577016,-0.116681858897209,0.107248567044735,-0.805398941040039
-371.804454703049,99.5818021878783,-82.2958257730803,-78.7457513029416,-0.12010945379734,0.107369318604469,-0.805464029312134
