EOG_left_h,EOG_right_h,EOG_left_v,EOG_right_v,head_horizontal,head_frontal,head_sagittal
23.5200266785114,-10.2845125000818,10.4820881225238,-20.9639678146347,0.0,0.0,0.0
23.5200266785114,-10.2845125000818,10.4820881225238,-20.9639678146347,-0.000768424652051181,0.00132713199127465,-8.73559401952662e-05
23.5200266785114,-10.2845125000818,10.4820881225238,-20.9639678146347,-0.00153491925448179,0.00265177618712187,-0.000174170359969139
23.5200266785114,-10.2845125000818,10.4820881225238,-20.9639678146347,-0.002299485495314,0.00397393526509404,-0.000260443601291627
23.5200266785114,-10.2845125000818,10.4820881225238,-20.9639678146347,-0.00306212529540062,0.00529361236840487,-0.000346176064340398
23.5200266785114,-10.2845125000818,10.4820881225238,-20.9639678146347,-0.00382284028455615,0.00661080982536078,-0.000431368098361418
23.5200266785114,-10.2845125000818,10.4820881225238,-20.9639678146347,-0.0045816320925951,0.00792553089559078,-0.000516020052600652
23.5200266785114,-10.2845125000818,10.4820881225238,-20.9639678146347,-0.00533850304782391,0.00923777837306261,-0.000600132334511727
23.5200266785114,-10.2845125000818,10.4820881225238,-20.9639678146347,-0.00609345454722643,0.010547555051744,-0.000683705264236778
23.5200266785114,-10.2845125000818,10.4820881225238,-20.9639678146347,-0.00684648798778653,0.0118548637256026,-0.000766739249229431
23.5200266785114,-10.2845125000818,10.4820881225238,-20.9639678146347,-0.00759760569781065,0.0131597071886063,-0.000849234638735652
23.5200266785114,-10.2845125000818,10.4820881225238,-20.9639678146347,-0.00834680907428265,0.0144620873034,-0.000931191782001406
23.5200266785114,-10.2845125000818,10.4820881225238,-20.9639678146347,-0.00909410044550896,0.0157620087265968,-0.00101261108648032
23.5200266785114,-10.2845125000818,10.4820881225238,-20.9639678146347,-0.00983948074281216,0.0170594733208418,-0.0010934928432107
23.5200266785114,-10.2845125000818,10.4820881225238,-20.9639678146347,-0.01058295276016,0.0183544829487801,-0.00117383745964617
23.5200266785114,-10.2845125000818,10.4820881225238,-20.9639678146347,-0.011324517428875,0.0196470413357019,-0.00125364528503269
23.5200266785114,-10.2845125000818,10.4820881225238,-20.9639678146347,-0.0120641766116023,0.0209371522068977,-0.00133291678503156
23.5200266785114,-10.2845125000818,10.4820881225238,-20.9639678146347,-0.0128019321709871,0.0222248174250126,-0.00141165219247341
23.5200266785114,-10.2845125000818,10.4820881225238,-20.9639678146347,-0.0135377859696746,0.0235100388526917,-0.00148985185660422
23.5200266785114,-10.2845125000818,10.4820881225238,-20.9639678146347,-0.0142717398703098,0.0247928202152252,-0.00156751624308527
23.5200266785114,-10.2845125000818,10.4820881225238,-20.9639678146347,-0.0150037948042154,0.0260731652379036,-0.00164464570116252
23.5200266785114,-10.2845125000818,10.4820881225238,-20.9639678146347,-0.0157339535653591,0.0273510757833719,-0.00172124058008194
23.5200266785114,-10.2845125000818,10.4820881225238,-20.9639678146347,-0.016462218016386,0.0286265537142754,-0.0017973012290895
23.5200266785114,-10.2845125000818,10.4820881225238,-20.9639678146347,-0.0171885881572962,0.0298996027559042,-0.00187282799743116
23.5200266785114,-10.2845125000818,10.4820881225238,-20.9639678146347,-0.0179130677133799,0.0311702266335487,-0.00194782123435289
23.5200266785114,-10.2845125000818,10.4820881225238,-20.9639678146347,-0.0186356566846371,0.0324384272098541,-0.00202228128910065
23.5200266785114,-10.2845125000818,10.4820881225238,-20.9639678146347,-0.0193563587963581,0.0337042063474655,-0.00209620874375105
23.5200266785114,-10.2845125000818,10.4820881225238,-20.9639678146347,-0.020075174048543,0.0349675677716732,-0.00216960371471941
23.5200266785114,-10.2845125000818,10.4820881225238,-20.9639678146347,-0.0207921043038368,0.0362285152077675,-0.00224246666766703
23.5200266785114,-10.2845125000818,10.4820881225238,-20.9639678146347,-0.0215071532875299,0.0374870523810387,-0.00231479783542454
23.5200266785114,-10.2845125000818,10.4820881225238,-20.9639678146347,-0.0222203209996223,0.0387431792914867,-0.00238659768365324
23.5200266785114,-10.2845125000818,10.4820881225238,-20.9639678146347,-0.0229316093027592,0.039996899664402,-0.0024578666780144
23.5200266785114,-10.2845125000818,10.4820881225238,-20.9639678146347,-0.0236410200595856,0.0412482172250748,-0.00252860505133867
23.5200266785114,-10.2845125000818,10.4820881225238,-20.9639678146347,-0.0243485551327467,0.042497131973505,-0.0025988130364567
23.5200266785114,-10.2845125000818,10.4820881225238,-20.9639678146347,-0.0250542163848877,0.0437436476349831,-0.00266849133186042
23.5200266785114,-10.2845125000818,10.4820881225238,-20.9639678146347,-0.0257580056786537,0.0449877679347992,-0.00273763993754983
23.5200266785114,-10.2845125000818,10.4820881225238,-20.9639678146347,-0.0264599248766899,0.0462294965982437,-0.00280625955201685
23.5200266785114,-10.2845125000818,10.4820881225238,-20.9639678146347,-0.0271599739789963,0.0474688336253166,-0.00287435040809214
23.5200266785114,-10.2845125000818,10.4820881225238,-20.9639678146347,-0.0278581567108631,0.0487057864665985,-0.00294191273860633
23.5200266785114,-10.2845125000818,10.4820881225238,-20.9639678146347,-0.0285544749349356,0.0499403551220894,-0.00300894700922072
23.5200266785114,-10.2845125000818,10.4820881225238,-20.9639678146347,-0.0292489286512136,0.0511725395917892,-0.00307545368559659
23.5200266785114,-10.2845125000818,10.4820881225238,-20.9639678146347,-0.0299415215849876,0.0524023473262787,-0.00314143300056458
23.5200266785114,-10.2845125000818,10.4820881225238,-20.9639678146347,-0.0306322537362576,0.0536297783255577,-0.00320688518695533
23.5200266785114,-10.2845125000818,10.4820881225238,-20.9639678146347,-0.0313211269676685,0.0548548363149166,-0.00327181071043015
23.5200266785114,-10.2845125000818,10.4820881225238,-20.9639678146347,-0.0320081450045109,0.0560775250196457,-0.0033362100366503
23.5200266785114,-10.2845125000818,10.4820881225238,-20.9639678146347,-0.0326933078467846,0.0572978444397449,-0.00340008339844644
23.5200266785114,-10.2845125000818,10.4820881225238,-20.9639678146347,-0.0333766154944897,0.0585157983005047,-0.00346343126147985
23.5200266785114,-10.2845125000818,10.4820881225238,-20.9639678146347,-0.0340580716729164,0.0597313903272152,-0.00352625409141183
23.5200266785114,-10.2845125000818,10.4820881225238,-20.9639678146347,-0.0347376801073551,0.0609446242451668,-0.00358855212107301
23.5200266785114,-10.2845125000818,10.4820881225238,-20.9639678146347,-0.0354154407978058,0.0621555000543594,-0.00365032558329403
23.5200266785114,-10.2845125000818,10.4820881225238,-20.9639678146347,-0.0360913537442684,0.0633640214800835,-0.0037115749437362
23.5200266785114,-10.2845125000818,10.4820881225238,-20.9639678146347,-0.0367654226720333,0.0645701885223389,-0.00377230066806078
23.5200266785114,-10.2845125000818,10.4820881225238,-20.9639678146347,-0.0374376475811005,0.0657740086317062,-0.00383250298909843
23.5200266785114,-10.2845125000818,10.4820881225238,-20.9639678146347,-0.0381080321967602,0.0669754818081856,-0.00389218213967979
23.5200266785114,-10.2845125000818,10.4820881225238,-20.9639678146347,-0.0387765765190125,0.0681746155023575,-0.00395133858546615
23.5200266785114,-10.2845125000818,10.4820881225238,-20.9639678146347,-0.0394432842731476,0.069371409714222,-0.00400997279211879
23.5200266785114,-10.2845125000818,10.4820881225238,-20.9639678146347,-0.0401081554591656,0.070565864443779,-0.00406808499246836
23.5200266785114,-10.2845125000818,10.4820881225238,-20.9639678146347,-0.0407711938023567,0.0717579871416092,-0.00412567565217614
23.5200266785114,-10.2845125000818,10.4820881225238,-20.9639678146347,-0.041432399302721,0.0729477778077126,-0.00418274523690343
23.5200266785114,-10.2845125000818,10.4820881225238,-20.9639678146347,-0.0420917756855488,0.0741352364420891,-0.00423929374665022
23.5200266785114,-10.2845125000818,10.4820881225238,-20.9639678146347,-0.04274932295084,0.0753203704953194,-0.00429532211273909
23.5200266785114,-10.2845125000818,10.4820881225238,-20.9639678146347,-0.0434050410985947,0.0765031799674034,-0.00435083033517003
23.5200266785114,-10.2845125000818,10.4820881225238,-20.9639678146347,-0.0440589338541031,0.0776836648583412,-0.00440581841394305
23.5200266785114,-10.2845125000818,10.4820881225238,-20.9639678146347,-0.0447110012173653,0.0788618326187134,-0.00446028728038073
23.5200266785114,-10.2845125000818,10.4820881225238,-20.9639678146347,-0.0453612469136715,0.0800376832485199,-0.00451423693448305
23.5200266785114,-10.2845125000818,10.4820881225238,-20.9639678146347,-0.0460096746683121,0.0812112241983414,-0.00456766784191132
23.5200266785114,-10.2845125000818,10.4820881225238,-20.9639678146347,-0.0466562807559967,0.0823824554681778,-0.00462058046832681
23.5200266785114,-10.2845125000818,10.4820881225238,-20.9639678146347,-0.047301072627306,0.0835513770580292,-0.00467297527939081
23.5200266785114,-10.2845125000818,10.4820881225238,-20.9639678146347,-0.0479440465569496,0.0847179964184761,-0.00472485227510333
23.5200266785114,-10.2845125000818,10.4820881225238,-20.9639678146347,-0.0485852062702179,0.0858823135495186,-0.00477621192112565
23.5200266785114,-10.2845125000818,10.4820881225238,-20.9639678146347,-0.0492245554924011,0.0870443284511566,-0.00482705468311906
23.5200266785114,-10.2845125000818,10.4820881225238,-20.9639678146347,-0.0498620942234993,0.0882040485739708,-0.00487738102674484
23.5200266785114,-10.2845125000818,10.4820881225238,-20.9639678146347,-0.0504978261888027,0.0893614739179611,-0.004927190952003
23.5200266785114,-10.2845125000818,10.4820881225238,-20.9639678146347,-0.0511317476630211,0.0905166044831276,-0.00497648492455482
23.5200266785114,-10.2845125000818,10.4820881225238,-20.9639678146347,-0.051763866096735,0.0916694477200508,-0.0050252634100616
23.5200266785114,-10.2845125000818,10.4820881225238,-20.9639678146347,-0.0523941814899445,0.0928200036287308,-0.00507352687418461
23.5200266785114,-10.2845125000818,10.4820881225238,-20.9639678146347,-0.0530226938426495,0.0939682796597481,-0.00512127578258514
23.5200266785114,-10.2845125000818,10.4820881225238,-20.9639678146347,-0.0536494068801403,0.0951142758131027,-0.0051685101352632
23.5200266785114,-10.2845125000818,10.4820881225238,-20.9639678146347,-0.054274320602417,0.0962579920887947,-0.00521523039788008
23.5200266785114,-10.2845125000818,10.4820881225238,-20.9639678146347,-0.0548974387347698,0.0973994359374046,-0.00526143703609705
23.5200266785114,-10.2845125000818,10.4820881225238,-20.9639678146347,-0.0555187612771988,0.0985386073589325,-0.00530713004991412
23.5200266785114,-10.2845125000818,10.4820881225238,-20.9639678146347,-0.0561382919549942,0.0996755063533783,-0.00535231037065387
23.5200266785114,-10.2845125000818,10.4820881225238,-20.9639678146347,-0.0567560307681561,0.100810140371323,-0.00539697799831629
23.5200266785114,-10.2845125000818,10.4820881225238,-20.9639678146347,-0.0573719777166843,0.101942509412766,-0.00544113339856267
23.5200266785114,-10.2845125000818,10.4820881225238,-20.9639678146347,-0.0579861365258694,0.103072613477707,-0.00548477657139301
23.5200266785114,-10.2845125000818,10.4820881225238,-20.9639678146347,-0.0585985109210014,0.104200460016727,-0.00552790844812989
23.5200266785114,-10.2845125000818,10.4820881225238,-20.9639678146347,-0.0592091009020805,0.105326049029827,-0.00557052902877331
23.5200266785114,-10.2845125000818,10.4820881225238,-20.9639678146347,-0.0598179064691067,0.106449387967587,-0.00561263877898455
23.5200266785114,-10.2845125000818,10.4820881225238,-20.9639678146347,-0.0604249313473701,0.107570476830006,-0.00565423769876361
23.5200266785114,-10.2845125000818,10.4820881225238,-20.9639678146347,-0.061030175536871,0.108689315617085,-0.00569532671943307
23.5200266785114,-10.2845125000818,10.4820881225238,-20.9639678146347,-0.0616336427628994,0.109805911779404,-0.00573590584099293
23.5200266785114,-10.2845125000818,10.4820881225238,-20.9639678146347,-0.0622353330254555,0.110920265316963,-0.00577597552910447
23.5200266785114,-10.2845125000818,10.4820881225238,-20.9639678146347,-0.0628352463245392,0.112032376229763,-0.00581553624942899
23.5200266785114,-10.2845125000818,10.4820881225238,-20.9639678146347,-0.0634333863854408,0.113142251968384,-0.00585458800196648
23.5200266785114,-10.2845125000818,10.4820881225238,-20.9639678146347,-0.0640297532081604,0.114249892532825,-0.00589313171803951
23.5200266785114,-10.2845125000818,10.4820881225238,-20.9639678146347,-0.0646243542432785,0.115355297923088,-0.0059311673976481
23.5200266785114,-10.2845125000818,10.4820881225238,-20.9639678146347,-0.0652171894907951,0.116458475589752,-0.00596869504079223
23.5200266785114,-10.2845125000818,10.4820881225238,-20.9639678146347,-0.0658082589507103,0.117559425532818,-0.00600571557879448
23.5200266785114,-10.2845125000818,10.4820881225238,-20.9639678146347,-0.066397562623024,0.118658147752285,-0.00604222901165485
23.5200266785114,-10.2845125000818,10.4820881225238,-20.9639678146347,-0.0669851005077362,0.119754649698734,-0.00607823580503464
23.5200266785114,-10.2845125000818,10.4820881225238,-20.9639678146347,-0.0675708800554276,0.120848931372166,-0.00611373642459512
23.5200266785114,-10.2845125000818,10.4820881225238,-20.9639678146347,-0.068154901266098,0.12194100022316,-0.00614873133599758
23.5200266785114,-10.2845125000818,10.4820881225238,-20.9639678146347,-0.0687371641397476,0.123030856251717,-0.00618322053924203
23.5200266785114,-10.2845125000818,10.4820881225238,-20.9639678146347,-0.0693176686763763,0.124118499457836,-0.00621720449998975
23.5200266785114,-10.2845125000818,10.4820881225238,-20.9639678146347,-0.0698964148759842,0.125203937292099,-0.00625068368390203
23.5200266785114,-10.2845125000818,10.4820881225238,-20.9639678146347,-0.0704734101891518,0.126287162303925,-0.00628365809097886
23.5200266785114,-10.2845125000818,10.4820881225238,-20.9639678146347,-0.0710486546158791,0.127368196845055,-0.00631612865254283
23.5200266785114,-10.2845125000818,10.4820881225238,-20.9639678146347,-0.0716221481561661,0.128447026014328,-0.00634809536859393
23.5200266785114,-10.2845125000818,10.4820881225238,-20.9639678146347,-0.0721938982605934,0.129523649811745,-0.00637955870479345
23.5200266785114,-10.2845125000818,10.4820881225238,-20.9639678146347,-0.0727638974785805,0.130598083138466,-0.0064105186611414
23.5200266785114,-10.2845125000818,10.4820881225238,-20.9639678146347,-0.0733321532607079,0.131670325994492,-0.00644097616896033
23.5200266785114,-10.2845125000818,10.4820881225238,-20.9639678146347,-0.0738986656069756,0.132740378379822,-0.00647093122825027
23.5200266785114,-10.2845125000818,10.4820881225238,-20.9639678146347,-0.0744634345173836,0.133808240294456,-0.00650038430467248
23.5200266785114,-10.2845125000818,10.4820881225238,-20.9639678146347,-0.0750264674425125,0.134873926639557,-0.00652933539822698
23.5200266785114,-10.2845125000818,10.4820881225238,-20.9639678146347,-0.0755877643823624,0.135937422513962,-0.00655778544023633
23.5200266785114,-10.2845125000818,10.4820881225238,-20.9639678146347,-0.0761473253369331,0.136998742818832,-0.00658573443070054
23.5200266785114,-10.2845125000818,10.4820881225238,-20.9639678146347,-0.0767051503062248,0.138057887554169,-0.0066131828352809
23.5200266785114,-10.2845125000818,10.4820881225238,-20.9639678146347,-0.0772612392902374,0.139114856719971,-0.00664013111963868
23.5200266785114,-10.2845125000818,10.4820881225238,-20.9639678146347,-0.0778155997395515,0.140169650316238,-0.0066665792837739
23.5200266785114,-10.2845125000818,10.4820881225238,-20.9639678146347,-0.0783682316541672,0.141222283244133,-0.00669252779334784
23.5200266785114,-10.2845125000818,10.4820881225238,-20.9639678146347,-0.0789191350340843,0.142272740602493,-0.00671797711402178
23.5200266785114,-10.2845125000818,10.4820881225238,-20.9639678146347,-0.079468309879303,0.14332103729248,-0.00674292771145701
23.5200266785114,-10.2845125000818,10.4820881225238,-20.9639678146347,-0.0800157636404037,0.144367173314095,-0.00676737958565354
23.5200266785114,-10.2845125000818,10.4820881225238,-20.9639678146347,-0.080561488866806,0.145411148667336,-0.00679133366793394
23.5200266785114,-10.2845125000818,10.4820881225238,-20.9639678146347,-0.0811054930090904,0.146452978253365,-0.00681478949263692
23.5200266785114,-10.2845125000818,10.4820881225238,-20.9639678146347,-0.0816477835178375,0.147492647171021,-0.00683774799108505
23.5200266785114,-10.2845125000818,10.4820881225238,-20.9639678146347,-0.0821883529424667,0.148530170321465,-0.00686020962893963
23.5200266785114,-10.2845125000818,10.4820881225238,-20.9639678146347,-0.0827272087335587,0.149565547704697,-0.00688217440620065
23.5200266785114,-10.2845125000818,10.4820881225238,-20.9639678146347,-0.0832643508911133,0.150598779320717,-0.0069036427885294
23.5200266785114,-10.2845125000818,10.4820881225238,-20.9639678146347,-0.0837997794151306,0.151629865169525,-0.00692461477592587
23.5200266785114,-10.2845125000818,10.4820881225238,-20.9639678146347,-0.0843334943056107,0.152658820152283,-0.00694509129971266
23.5200266785114,-10.2845125000818,10.4820881225238,-20.9639678146347,-0.0848654955625534,0.153685629367828,-0.00696507235988975
23.5200266785114,-10.2845125000818,10.4820881225238,-20.9639678146347,-0.0853957906365395,0.154710307717323,-0.00698455842211843
23.5200266785114,-10.2845125000818,10.4820881225238,-20.9639678146347,-0.0859243795275688,0.155732855200768,-0.00700354995205998
23.5200266785114,-10.2845125000818,10.4820881225238,-20.9639678146347,-0.0864512622356415,0.156753271818161,-0.00702204694971442
23.5200266785114,-10.2845125000818,10.4820881225238,-20.9639678146347,-0.086976446211338,0.157771557569504,-0.00704004988074303
23.5200266785114,-10.2845125000818,10.4820881225238,-20.9639678146347,-0.0874999240040779,0.158787727355957,-0.00705755921080709
23.5200266785114,-10.2845125000818,10.4820881225238,-20.9639678146347,-0.0880217030644417,0.15980176627636,-0.00707457540556788
23.5200266785114,-10.2845125000818,10.4820881225238,-20.9639678146347,-0.0885417833924294,0.160813689231873,-0.00709109893068671
23.5200266785114,-10.2845125000818,10.4820881225238,-20.9639678146347,-0.0890601649880409,0.161823496222496,-0.00710712978616357
23.5200266785114,-10.2845125000818,10.4820881225238,-20.9639678146347,-0.089576855301857,0.16283118724823,-0.00712266843765974
23.5200266785114,-10.2845125000818,10.4820881225238,-20.9639678146347,-0.0900918543338776,0.163836777210236,-0.00713771488517523
23.5200266785114,-10.2845125000818,10.4820881225238,-20.9639678146347,-0.0906051620841026,0.164840251207352,-0.00715227006003261
23.5200266785114,-10.2845125000818,10.4820881225238,-20.9639678146347,-0.0911167785525322,0.165841624140739,-0.00716633396223187
23.5200266785114,-10.2845125000818,10.4820881225238,-20.9639678146347,-0.0916267037391663,0.166840896010399,-0.00717990705743432
23.5200266785114,-10.2845125000818,10.4820881225238,-20.9639678146347,-0.0921349450945854,0.16783806681633,-0.00719298981130123
23.5200266785114,-10.2845125000818,10.4820881225238,-20.9639678146347,-0.0926415026187897,0.168833136558533,-0.00720558222383261
23.5200266785114,-10.2845125000818,10.4820881225238,-20.9639678146347,-0.093146376311779,0.169826105237007,-0.00721768476068974
23.5200266785114,-10.2845125000818,10.4820881225238,-20.9639678146347,-0.0936495661735535,0.170816987752914,-0.0072292978875339
23.5200266785114,-10.2845125000818,10.4820881225238,-20.9639678146347,-0.094151072204113,0.171805769205093,-0.0072404220700264
23.5200266785114,-10.2845125000818,10.4820881225238,-20.9639678146347,-0.0946509018540382,0.172792464494705,-0.00725105730816722
23.5200266785114,-10.2845125000818,10.4820881225238,-20.9639678146347,-0.0951490551233292,0.17377707362175,-0.00726120453327894
23.5200266785114,-10.2845125000818,10.4820881225238,-20.9639678146347,-0.0956455320119858,0.174759611487389,-0.00727086327970028
23.5200266785114,-10.2845125000818,10.4820881225238,-20.9639678146347,-0.0961403399705887,0.17574006319046,-0.00728003447875381
23.5200266785114,-10.2845125000818,10.4820881225238,-20.9639678146347,-0.0966334715485573,0.176718443632126,-0.00728871859610081
23.5200266785114,-10.2845125000818,10.4820881225238,-20.9639678146347,-0.0971249341964722,0.177694737911224,-0.00729691563174129
23.5200266785114,-10.2845125000818,10.4820881225238,-20.9639678146347,-0.0976147279143333,0.178668960928917,-0.00730462605133653
23.5200266785114,-10.2845125000818,10.4820881225238,-20.9639678146347,-0.0981028527021408,0.179641112685204,-0.00731184985488653
23.5200266785114,-10.2845125000818,10.4820881225238,-20.9639678146347,-0.0985893160104752,0.180611208081245,-0.00731858797371387
23.5200266785114,-10.2845125000818,10.4820881225238,-20.9639678146347,-0.0990741103887558,0.181579232215881,-0.00732484040781856
23.5200266785114,-10.2845125000818,10.4820881225238,-20.9639678146347,-0.0995572432875633,0.182545199990273,-0.00733060762286186
23.5200266785114,-10.2845125000818,10.4820881225238,-20.9639678146347,-0.100038714706898,0.183509096503258,-0.00733588961884379
23.5200266785114,-10.2845125000818,10.4820881225238,-20.9639678146347,-0.10051853209734,0.184470936655998,-0.00734068686142564
23.5200266785114,-10.2845125000818,10.4820881225238,-20.9639678146347,-0.100996688008308,0.185430720448494,-0.00734500028192997
23.5200266785114,-10.2845125000818,10.4820881225238,-20.9639678146347,-0.101473189890385,0.186388462781906,-0.0073488294146955
23.5200266785114,-10.2845125000818,10.4820881225238,-20.9639678146347,-0.101948037743568,0.187344148755074,-0.00735217519104481
23.5200266785114,-10.2845125000818,10.4820881225238,-20.9639678146347,-0.10242123156786,0.188297793269157,-0.00735503761097789
23.5200266785114,-10.2845125000818,10.4820881225238,-20.9639678146347,-0.102892771363258,0.189249396324158,-0.00735741714015603
23.5200266785114,-10.2845125000818,10.4820881225238,-20.9639678146347,-0.103362664580345,0.190198957920074,-0.00735931424424052
23.5200266785114,-10.2845125000818,10.4820881225238,-20.9639678146347,-0.10383091121912,0.191146478056908,-0.00736072938889265
23.5200266785114,-10.2845125000818,10.4820881225238,-20.9639678146347,-0.104297511279583,0.192091956734657,-0.00736166257411242
23.5200266785114,-10.2845125000818,10.4820881225238,-20.9639678146347,-0.104762464761734,0.193035408854485,-0.0073621142655611
23.5200266785114,-10.2845125000818,10.4820881225238,-20.9639678146347,-0.105225779116154,0.193976819515228,-0.0073620849289
23.5200266785114,-10.2845125000818,10.4820881225238,-20.9639678146347,-0.105687446892262,0.19491620361805,-0.00736157456412911
23.5200266785114,-10.2845125000818,10.4820881225238,-20.9639678146347,-0.106147475540638,0.195853561162949,-0.00736058363690972
23.5200266785114,-10.2845125000818,10.4820881225238,-20.9639678146347,-0.106605865061283,0.196788892149925,-0.00735911261290312
23.5200266785114,-10.2845125000818,10.4820881225238,-20.9639678146347,-0.107062622904778,0.197722211480141,-0.00735716195777059
23.5200266785114,-10.2845125000818,10.4820881225238,-20.9639678146347,-0.107517741620541,0.198653504252434,-0.00735473213717341
23.5200266785114,-10.2845125000818,10.4820881225238,-20.9639678146347,-0.107971228659153,0.199582785367966,-0.0073518231511116
23.5200266785114,-10.2845125000818,10.4820881225238,-20.9639678146347,-0.108423084020615,0.200510054826736,-0.00734843546524644
23.5200266785114,-10.2845125000818,10.4820881225238,-20.9639678146347,-0.108873307704926,0.201435312628746,-0.00734456907957792
23.5200266785114,-10.2845125000818,10.4820881225238,-20.9639678146347,-0.109321907162666,0.202358558773994,-0.00734022492542863
23.5200266785114,-10.2845125000818,10.4820881225238,-20.9639678146347,-0.109768874943256,0.203279793262482,-0.00733540300279856
23.5200266785114,-10.2845125000818,10.4820881225238,-20.9639678146347,-0.110214218497276,0.204199030995369,-0.007330103777349
23.5200266785114,-10.2845125000818,10.4820881225238,-20.9639678146347,-0.110657937824726,0.205116271972656,-0.00732432724907994
23.5200266785114,-10.2845125000818,10.4820881225238,-20.9639678146347,-0.111100040376186,0.206031501293182,-0.00731807434931397
23.5200266785114,-10.2845125000818,10.4820881225238,-20.9639678146347,-0.111540518701077,0.206944733858109,-0.00731134507805109
23.5200266785114,-10.2845125000818,10.4820881225238,-20.9639678146347,-0.111979380249977,0.207855984568596,-0.00730413990095258
23.5200266785114,-10.2845125000818,10.4820881225238,-20.9639678146347,-0.112416625022888,0.208765238523483,-0.00729645881801844
23.5200266785114,-10.2845125000818,10.4820881225238,-20.9639678146347,-0.11285225301981,0.209672510623932,-0.00728830229490995
23.5200266785114,-10.2845125000818,10.4820881225238,-20.9639678146347,-0.113286264240742,0.210577785968781,-0.00727967079728842
23.5200266785114,-10.2845125000818,10.4820881225238,-20.9639678146347,-0.113718666136265,0.21148107945919,-0.00727056479081512
23.5200266785114,-10.2845125000818,10.4820881225238,-20.9639678146347,-0.114149451255798,0.212382391095161,-0.00726098474115133
23.5200266785114,-10.2845125000818,10.4820881225238,-20.9639678146347,-0.114578627049923,0.213281720876694,-0.00725093064829707
23.5200266785114,-10.2845125000818,10.4820881225238,-20.9639678146347,-0.115006200969219,0.214179083704948,-0.00724040297791362
23.5200266785114,-10.2845125000818,10.4820881225238,-20.9639678146347,-0.115432165563107,0.215074464678764,-0.00722940173000097
23.5200266785114,-10.2845125000818,10.4820881225238,-20.9639678146347,-0.115856528282166,0.215967878699303,-0.00721792783588171
23.5200266785114,-10.2845125000818,10.4820881225238,-20.9639678146347,-0.116279289126396,0.216859325766563,-0.00720598129555583
23.5200266785114,-10.2845125000818,10.4820881225238,-20.9639678146347,-0.116700448095798,0.217748805880547,-0.00719356257468462
23.5200266785114,-10.2845125000818,10.4820881225238,-20.9639678146347,-0.117120005190372,0.218636319041252,-0.00718067213892937
23.5200266785114,-10.2845125000818,10.4820881225238,-20.9639678146347,-0.117537960410118,0.219521880149841,-0.00716730998829007
23.5200266785114,-10.2845125000818,10.4820881225238,-20.9639678146347,-0.117954321205616,0.220405474305153,-0.00715347658842802
23.5200266785114,-10.2845125000818,10.4820881225238,-20.9639678146347,-0.118369087576866,0.221287116408348,-0.0071391724050045
23.5200266785114,-10.2845125000818,10.4820881225238,-20.9639678146347,-0.118782259523869,0.222166806459427,-0.00712439743801951
23.5200266785114,-10.2845125000818,10.4820881225238,-20.9639678146347,-0.119193837046623,0.223044544458389,-0.00710915261879563
23.5200266785114,-10.2845125000818,10.4820881225238,-20.9639678146347,-0.119603827595711,0.223920330405235,-0.00709343794733286
23.5200266785114,-10.2845125000818,10.4820881225238,-20.9639678146347,-0.120012231171131,0.224794179201126,-0.00707725342363119
23.5200266785114,-10.2845125000818,10.4820881225238,-20.9639678146347,-0.120419047772884,0.225666075944901,-0.0070605999790132
23.5200266785114,-10.2845125000818,10.4820881225238,-20.9639678146347,-0.12082427740097,0.22653603553772,-0.0070434776134789
23.5200266785114,-10.2845125000818,10.4820881225238,-20.9639678146347,-0.121227920055389,0.227404057979584,-0.00702588679268956
23.5200266785114,-10.2845125000818,10.4820881225238,-20.9639678146347,-0.121629983186722,0.228270143270493,-0.00700782798230648
23.5200266785114,-10.2845125000818,10.4820881225238,-20.9639678146347,-0.122030466794968,0.229134291410446,-0.00698930118232965
23.5200266785114,-10.2845125000818,10.4820881225238,-20.9639678146347,-0.122429370880127,0.229996517300606,-0.00697030685842037
23.5200266785114,-10.2845125000818,10.4820881225238,-20.9639678146347,-0.1228266954422,0.23085680603981,-0.00695084547623992
23.5200266785114,-10.2845125000818,10.4820881225238,-20.9639678146347,-0.123222440481186,0.231715172529221,-0.0069309170357883
23.5200266785114,-10.2845125000818,10.4820881225238,-20.9639678146347,-0.123616613447666,0.232571616768837,-0.00691052246838808
23.5200266785114,-10.2845125000818,10.4820881225238,-20.9639678146347,-0.12400921434164,0.233426138758659,-0.00688966177403927
23.5200266785114,-10.2845125000818,10.4820881225238,-20.9639678146347,-0.124400243163109,0.234278738498688,-0.00686833495274186
23.5200266785114,-10.2845125000818,10.4820881225238,-20.9639678146347,-0.124789699912071,0.235129415988922,-0.00684654293581843
23.5200266785114,-10.2845125000818,10.4820881225238,-20.9639678146347,-0.125177592039108,0.235978186130524,-0.00682428572326899
23.5200266785114,-10.2845125000818,10.4820881225238,-20.9639678146347,-0.12556391954422,0.236825048923492,-0.0068015637807548
23.5200266785114,-10.2845125000818,10.4820881225238,-20.9639678146347,-0.125948682427406,0.237670004367828,-0.00677837757393718
23.5200266785114,-10.2845125000818,10.4820881225238,-20.9639678146347,-0.126331880688667,0.238513052463531,-0.0067547271028161
23.5200266785114,-10.2845125000818,10.4820881225238,-20.9639678146347,-0.126713514328003,0.239354193210602,-0.00673061283305287
23.5200266785114,-10.2845125000818,10.4820881225238,-20.9639678146347,-0.127093583345413,0.240193426609039,-0.00670603523030877
23.5200266785114,-10.2845125000818,10.4820881225238,-20.9639678146347,-0.127472102642059,0.241030767560005,-0.00668099476024508
23.5200266785114,-10.2845125000818,10.4820881225238,-20.9639678146347,-0.12784905731678,0.241866216063499,-0.00665549142286181
23.5200266785114,-10.2845125000818,10.4820881225238,-20.9639678146347,-0.128224462270737,0.242699757218361,-0.00662952568382025
23.5200266785114,-10.2845125000818,10.4820881225238,-20.9639678146347,-0.128598302602768,0.243531405925751,-0.00660309800878167
23.5200266785114,-10.2845125000818,10.4820881225238,-20.9639678146347,-0.128970593214035,0.24436117708683,-0.00657620839774609
23.5200266785114,-10.2845125000818,10.4820881225238,-20.9639678146347,-0.129341334104538,0.245189055800438,-0.00654885731637478
23.5200266785114,-10.2845125000818,10.4820881225238,-20.9639678146347,-0.129710525274277,0.246015056967735,-0.00652104523032904
23.5200266785114,-10.2845125000818,10.4820881225238,-20.9639678146347,-0.130078166723251,0.246839165687561,-0.00649277260527015
23.5200266785114,-10.2845125000818,10.4820881225238,-20.9639678146347,-0.130444273352623,0.247661396861076,-0.00646403944119811
23.5200266785114,-10.2845125000818,10.4820881225238,-20.9639678146347,-0.13080883026123,0.248481750488281,-0.00643484620377421
23.5200266785114,-10.2845125000818,10.4820881225238,-20.9639678146347,-0.131171837449074,0.249300226569176,-0.00640519335865974
23.5200266785114,-10.2845125000818,10.4820881225238,-20.9639678146347,-0.131533309817314,0.25011682510376,-0.0063750809058547
23.5200266785114,-10.2845125000818,10.4820881225238,-20.9639678146347,-0.13189323246479,0.250931560993195,-0.00634450977668166
23.5200266785114,-10.2845125000818,10.4820881225238,-20.9639678146347,-0.132251620292664,0.251744419336319,-0.00631347997114062
23.5200266785114,-10.2845125000818,10.4820881225238,-20.9639678146347,-0.132608473300934,0.252555429935455,-0.00628199148923159
23.5200266785114,-10.2845125000818,10.4820881225238,-20.9639678146347,-0.132963791489601,0.253364562988281,-0.00625004526227713
23.5200266785114,-10.2845125000818,10.4820881225238,-20.9639678146347,-0.133317574858665,0.254171848297119,-0.00621764129027724
23.5200266785114,-10.2845125000818,10.4820881225238,-20.9639678146347,-0.133669823408127,0.254977285861969,-0.00618478003889322
23.5200266785114,-10.2845125000818,10.4820881225238,-20.9639678146347,-0.134020537137985,0.255780845880508,-0.00615146150812507
23.5200266785114,-10.2845125000818,10.4820881225238,-20.9639678146347,-0.134369730949402,0.25658255815506,-0.00611768616363406
23.5200266785114,-10.2845125000818,10.4820881225238,-20.9639678146347,-0.134717389941216,0.257382422685623,-0.0060834544710815
23.5200266785114,-10.2845125000818,10.4820881225238,-20.9639678146347,-0.135063529014587,0.258180439472198,-0.00604876689612865
23.5200266785114,-10.2845125000818,10.4820881225238,-20.9639678146347,-0.135408148169518,0.258976608514786,-0.00601362390443683
23.5200266785114,-10.2845125000818,10.4820881225238,-20.9639678146347,-0.135751232504845,0.259770929813385,-0.00597802549600601
23.5200266785114,-10.2845125000818,10.4820881225238,-20.9639678146347,-0.13609279692173,0.260563433170319,-0.0059419721364975
23.5200266785114,-10.2845125000818,10.4820881225238,-20.9639678146347,-0.136432841420174,0.261354088783264,-0.00590546382591128
23.5200266785114,-10.2845125000818,10.4820881225238,-20.9639678146347,-0.136771366000175,0.262142896652222,-0.00586850149556994
23.5200266785114,-10.2845125000818,10.4820881225238,-20.9639678146347,-0.137108370661736,0.262929886579514,-0.00583108514547348
23.5200266785114,-10.2845125000818,10.4820881225238,-20.9639678146347,-0.137443870306015,0.263715028762817,-0.00579321477562189
23.5200266785114,-10.2845125000818,10.4820881225238,-20.9639678146347,-0.137777850031853,0.264498353004456,-0.00575489131733775
23.5200266785114,-10.2845125000818,10.4820881225238,-20.9639678146347,-0.13811032474041,0.265279859304428,-0.00571611477062106
23.5200266785114,-10.2845125000818,10.4820881225238,-20.9639678146347,-0.138441279530525,0.266059547662735,-0.00567688560113311
23.5200266785114,-10.2845125000818,10.4820881225238,-20.9639678146347,-0.13877072930336,0.266837388277054,-0.00563720380887389
23.5200266785114,-10.2845125000818,10.4820881225238,-20.9639678146347,-0.139098674058914,0.267613410949707,-0.00559707032516599
23.5200266785114,-10.2845125000818,10.4820881225238,-20.9639678146347,-0.139425113797188,0.268387615680695,-0.00555648515000939
23.5200266785114,-10.2845125000818,10.4820881225238,-20.9639678146347,-0.139750048518181,0.269160032272339,-0.0055154487490654
23.5200266785114,-10.2845125000818,10.4820881225238,-20.9639678146347,-0.140073478221893,0.269930630922318,-0.005473961122334
23.5200266785114,-10.2845125000818,10.4820881225238,-20.9639678146347,-0.140395402908325,0.27069941163063,-0.00543202273547649
23.5200266785114,-10.2845125000818,10.4820881225238,-20.9639678146347,-0.140715822577477,0.271466374397278,-0.00538963405415416
23.5200266785114,-10.2845125000818,10.4820881225238,-20.9639678146347,-0.141034752130508,0.272231549024582,-0.00534679554402828
23.5200266785114,-10.2845125000818,10.4820881225238,-20.9639678146347,-0.14135217666626,0.27299490571022,-0.00530350720509887
23.5200266785114,-10.2845125000818,10.4820881225238,-20.9639678146347,-0.141668111085892,0.273756474256516,-0.0052597695030272
23.5200266785114,-10.2845125000818,10.4820881225238,-20.9639678146347,-0.141982555389404,0.274516254663467,-0.00521558290347457
23.5200266785114,-10.2845125000818,10.4820881225238,-20.9639678146347,-0.142295509576797,0.275274217128754,-0.00517094740644097
23.5200266785114,-10.2845125000818,10.4820881225238,-20.9639678146347,-0.14260695874691,0.276030391454697,-0.00512586394324899
23.5200266785114,-10.2845125000818,10.4820881225238,-20.9639678146347,-0.142916932702065,0.276784777641296,-0.00508033204823732
23.5200266785114,-10.2845125000818,10.4820881225238,-20.9639678146347,-0.1432254165411,0.277537375688553,-0.00503435265272856
23.5200266785114,-10.2845125000818,10.4820881225238,-20.9639678146347,-0.143532410264015,0.278288185596466,-0.00498792575672269
23.5200266785114,-10.2845125000818,10.4820881225238,-20.9639678146347,-0.143837913870811,0.279037207365036,-0.004941051825881
23.5200266785114,-10.2845125000818,10.4820881225238,-20.9639678146347,-0.14414194226265,0.279784470796585,-0.00489373132586479
23.5200266785114,-10.2845125000818,10.4820881225238,-20.9639678146347,-0.144444480538368,0.280529946088791,-0.00484596472233534
23.5200266785114,-10.2845125000818,10.4820881225238,-20.9639678146347,-0.144745543599129,0.281273633241653,-0.00479775201529264
23.5200266785114,-10.2845125000818,10.4820881225238,-20.9639678146347,-0.145045131444931,0.282015562057495,-0.004749093670398
23.5200266785114,-10.2845125000818,10.4820881225238,-20.9639678146347,-0.145343244075775,0.282755732536316,-0.0046999896876514
23.5200266785114,-10.2845125000818,10.4820881225238,-20.9639678146347,-0.1456398665905,0.283494114875793,-0.00465044099837542
23.5200266785114,-10.2845125000818,10.4820881225238,-20.9639678146347,-0.145935028791428,0.28423073887825,-0.00460044760257006
23.5200266785114,-10.2845125000818,10.4820881225238,-20.9639678146347,-0.146228715777397,0.284965604543686,-0.00455000950023532
23.5200266785114,-10.2845125000818,10.4820881225238,-20.9639678146347,-0.146520927548409,0.285698711872101,-0.00449912762269378
23.5200266785114,-10.2845125000818,10.4820881225238,-20.9639678146347,-0.146811664104462,0.286430060863495,-0.00444780196994543
23.5200266785114,-10.2845125000818,10.4820881225238,-20.9639678146347,-0.147100940346718,0.287159651517868,-0.00439603300765157
23.5200266785114,-10.2845125000818,10.4820881225238,-20.9639678146347,-0.147388741374016,0.28788748383522,-0.00434382073581219
23.5200266785114,-10.2845125000818,10.4820881225238,-20.9639678146347,-0.147675082087517,0.288613557815552,-0.00429116608574986
23.5200266785114,-10.2845125000818,10.4820881225238,-20.9639678146347,-0.147959962487221,0.289337873458862,-0.0042380690574646
23.5200266785114,-10.2845125000818,10.4820881225238,-20.9639678146347,-0.148243382573128,0.290060460567474,-0.00418452965095639
23.5200266785114,-10.2845125000818,10.4820881225238,-20.9639678146347,-0.148525342345238,0.290781289339066,-0.00413054879754782
23.5200266785114,-10.2845125000818,10.4820881225238,-20.9639678146347,-0.148805841803551,0.291500359773636,-0.00407612649723887
23.5200266785114,-10.2845125000818,10.4820881225238,-20.9639678146347,-0.149084880948067,0.292217701673508,-0.00402126321569085
23.5200266785114,-10.2845125000818,10.4820881225238,-20.9639678146347,-0.149362459778786,0.292933315038681,-0.00396595895290375
23.5200266785114,-10.2845125000818,10.4820881225238,-20.9639678146347,-0.149638593196869,0.293647199869156,-0.00391021417453885
23.5200266785114,-10.2845125000818,10.4820881225238,-20.9639678146347,-0.149913266301155,0.29435932636261,-0.00385402934625745
23.5200266785114,-10.2845125000818,10.4820881225238,-20.9639678146347,-0.150186493992805,0.295069724321365,-0.00379740493372083
23.5200266785114,-10.2845125000818,10.4820881225238,-20.9639678146347,-0.150458261370659,0.295778393745422,-0.00374034093692899
23.5200266785114,-10.2845125000818,10.4820881225238,-20.9639678146347,-0.150728583335876,0.296485334634781,-0.00368283782154322
23.5200266785114,-10.2845125000818,10.4820881225238,-20.9639678146347,-0.150997459888458,0.297190546989441,-0.0036248960532248
23.5200266785114,-10.2845125000818,10.4820881225238,-20.9639678146347,-0.151264891028404,0.297894060611725,-0.00356651586480439
23.5200266785114,-10.2845125000818,10.4820881225238,-20.9639678146347,-0.151530876755714,0.29859584569931,-0.00350769748911262
23.5200266785114,-10.2845125000818,10.4820881225238,-20.9639678146347,-0.151795417070389,0.299295902252197,-0.00344844139181077
23.5200266785114,-10.2845125000818,10.4820881225238,-20.9639678146347,-0.152058511972427,0.299994260072708,-0.00338874780572951
23.5200266785114,-10.2845125000818,10.4820881225238,-20.9639678146347,-0.152320176362991,0.300690889358521,-0.0033286171965301
23.5200266785114,-10.2845125000818,10.4820881225238,-20.9639678146347,-0.152580395340919,0.301385819911957,-0.0032680497970432
23.5200266785114,-10.2845125000818,10.4820881225238,-20.9639678146347,-0.152839183807373,0.302079051733017,-0.00320704584009945
23.5200266785114,-10.2845125000818,10.4820881225238,-20.9639678146347,-0.153096541762352,0.302770555019379,-0.00314560579136014
23.5200266785114,-10.2845125000818,10.4820881225238,-20.9639678146347,-0.153352454304695,0.303460359573364,-0.00308372988365591
23.5200266785114,-10.2845125000818,10.4820881225238,-20.9639678146347,-0.153606936335564,0.304148465394974,-0.00302141858264804
23.5200266785114,-10.2845125000818,10.4820881225238,-20.9639678146347,-0.153859987854958,0.304834872484207,-0.00295867212116718
23.5200266785114,-10.2845125000818,10.4820881225238,-20.9639678146347,-0.154111608862877,0.305519580841064,-0.00289549073204398
23.5200266785114,-10.2845125000818,10.4820881225238,-20.9639678146347,-0.154361799359322,0.306202590465546,-0.00283187488093972
23.5200266785114,-10.2845125000818,10.4820881225238,-20.9639678146347,-0.154610574245453,0.306883931159973,-0.00276782480068505
23.5200266785114,-10.2845125000818,10.4820881225238,-20.9639678146347,-0.15485791862011,0.307563573122025,-0.0027033407241106
23.5200266785114,-10.2845125000818,10.4820881225238,-20.9639678146347,-0.155103847384453,0.3082415163517,-0.00263842311687768
23.5200266785114,-10.2845125000818,10.4820881225238,-20.9639678146347,-0.155348345637321,0.308917790651321,-0.00257307244464755
23.5200266785114,-10.2845125000818,10.4820881225238,-20.9639678146347,-0.155591428279877,0.309592366218567,-0.00250728894025087
23.5200266785114,-10.2845125000818,10.4820881225238,-20.9639678146347,-0.155833095312119,0.310265272855759,-0.00244107283651829
23.5200266785114,-10.2845125000818,10.4820881225238,-20.9639678146347,-0.156073346734047,0.310936510562897,-0.00237442436628044
23.5200266785114,-10.2845125000818,10.4820881225238,-20.9639678146347,-0.156312182545662,0.311606079339981,-0.00230734399519861
23.5200266785114,-10.2845125000818,10.4820881225238,-20.9639678146347,-0.156549602746964,0.312273949384689,-0.00223983218893409
23.5200266785114,-10.2845125000818,10.4820881225238,-20.9639678146347,-0.156785607337952,0.312940150499344,-0.00217188918031752
23.5200266785114,-10.2845125000818,10.4820881225238,-20.9639678146347,-0.157020196318626,0.313604682683945,-0.00210351520217955
23.5200266785114,-10.2845125000818,10.4820881225238,-20.9639678146347,-0.157253369688988,0.314267545938492,-0.00203471048735082
23.5200266785114,-10.2845125000818,10.4820881225238,-20.9639678146347,-0.157485142350197,0.314928770065308,-0.00196547550149262
23.5200266785114,-10.2845125000818,10.4820881225238,-20.9639678146347,-0.157715499401093,0.31558832526207,-0.00189581071026623
23.5200266785114,-10.2845125000818,10.4820881225238,-20.9639678146347,-0.157944455742836,0.316246211528778,-0.00182571623008698
23.5200266785114,-10.2845125000818,10.4820881225238,-20.9639678146347,-0.158172011375427,0.316902458667755,-0.00175519252661616
23.5200266785114,-10.2845125000818,10.4820881225238,-20.9639678146347,-0.158398166298866,0.317557036876678,-0.0016842398326844
23.5200266785114,-10.2845125000818,10.4820881225238,-20.9639678146347,-0.158622920513153,0.31820997595787,-0.00161285849753767
23.5200266785114,-10.2845125000818,10.4820881225238,-20.9639678146347,-0.158846274018288,0.318861246109009,-0.00154104875400662
23.5200266785114,-10.2845125000818,10.4820881225238,-20.9639678146347,-0.15906822681427,0.319510877132416,-0.00146881106775254
23.5200266785114,-10.2845125000818,10.4820881225238,-20.9639678146347,-0.1592887789011,0.320158869028091,-0.00139614567160606
23.5200266785114,-10.2845125000818,10.4820881225238,-20.9639678146347,-0.159507945179939,0.320805221796036,-0.00132305291481316
23.5200266785114,-10.2845125000818,10.4820881225238,-20.9639678146347,-0.159725710749626,0.321449935436249,-0.0012495331466198
23.5200266785114,-10.2845125000818,10.4820881225238,-20.9639678146347,-0.159942090511322,0.32209300994873,-0.00117558671627194
23.5200266785114,-10.2845125000818,10.4820881225238,-20.9639678146347,-0.160157069563866,0.322734445333481,-0.00110121385660022
23.5200266785114,-10.2845125000818,10.4820881225238,-20.9639678146347,-0.160370662808418,0.3233742415905,-0.00102641491685063
23.5200266785114,-10.2845125000818,10.4820881225238,-20.9639678146347,-0.16058287024498,0.324012398719788,-0.000951190304476768
23.5200266785114,-10.2845125000818,10.4820881225238,-20.9639678146347,-0.16079369187355,0.324648916721344,-0.000875540310516953
23.5200266785114,-10.2845125000818,10.4820881225238,-20.9639678146347,-0.16100312769413,0.325283825397491,-0.000799465226009488
23.5200266785114,-10.2845125000818,10.4820881225238,-20.9639678146347,-0.161211177706718,0.325917094945908,-0.000722965341992676
23.5200266785114,-10.2845125000818,10.4820881225238,-20.9639678146347,-0.161417841911316,0.326548755168915,-0.000646041007712483
23.5200266785114,-10.2845125000818,10.4820881225238,-20.9639678146347,-0.161623135209084,0.327178776264191,-0.000568692572414875
23.5200266785114,-10.2845125000818,10.4820881225238,-20.9639678146347,-0.16182704269886,0.327807188034058,-0.000490920327138156
23.5200266785114,-10.2845125000818,10.4820881225238,-20.9639678146347,-0.162029579281807,0.328433990478516,-0.000412724621128291
23.5200266785114,-10.2845125000818,10.4820881225238,-20.9639678146347,-0.162230730056763,0.329059183597565,-0.000334105774527416
23.5200266785114,-10.2845125000818,10.4820881225238,-20.9639678146347,-0.162430509924889,0.329682767391205,-0.000255064107477665
23.5200266785114,-10.2845125000818,10.4820881225238,-20.9639678146347,-0.162628918886185,0.330304741859436,-0.000175599940121174
23.5200266785114,-10.2845125000818,10.4820881225238,-20.9639678146347,-0.162825956940651,0.330925107002258,-9.57135853241198e-05
23.5200266785114,-10.2845125000818,10.4820881225238,-20.9639678146347,-0.163021624088287,0.331543862819672,-1.54053632286377e-05
23.5200266785114,-10.2845125000818,10.4820881225238,-20.9639678146347,-0.163215920329094,0.332161009311676,6.53243987471797e-05
23.5200266785114,-10.2845125000818,10.4820881225238,-20.9639678146347,-0.163408845663071,0.332776546478271,0.00014647537318524
23.5200266785114,-10.2845125000818,10.4820881225238,-20.9639678146347,-0.163600400090218,0.33339050412178,0.000228047225391492
23.5200266785114,-10.2845125000818,10.4820881225238,-20.9639678146347,-0.163790598511696,0.33400285243988,0.00031003967160359
23.5200266785114,-10.2845125000818,10.4820881225238,-20.9639678146347,-0.163979426026344,0.334613621234894,0.000392452348023653
23.5200266785114,-10.2845125000818,10.4820881225238,-20.9639678146347,-0.164166897535324,0.335222780704498,0.000475284963613376
23.5200266785114,-10.2845125000818,10.4820881225238,-20.9639678146347,-0.164353013038635,0.335830360651016,0.000558537198230624
23.5200266785114,-10.2845125000818,10.4820881225238,-20.9639678146347,-0.164537772536278,0.336436361074448,0.000642208731733263
23.5200266785114,-10.2845125000818,10.4820881225238,-20.9639678146347,-0.16472116112709,0.337040781974792,0.000726299243979156
23.5200266785114,-10.2845125000818,10.4820881225238,-20.9639678146347,-0.164903193712234,0.337643623352051,0.000810808385722339
23.5200266785114,-10.2845125000818,10.4820881225238,-20.9639678146347,-0.165083885192871,0.338244885206223,0.000895735865924507
23.5200266785114,-10.2845125000818,10.4820881225238,-20.9639678146347,-0.165263220667839,0.338844567537308,0.000981081277132034
23.5200266785114,-10.2845125000818,10.4820881225238,-20.9639678146347,-0.165441200137138,0.339442670345306,0.00106684444472194
23.5200266785114,-10.2845125000818,10.4820881225238,-20.9639678146347,-0.165617823600769,0.340039193630219,0.00115302496124059
23.5200266785114,-10.2845125000818,10.4820881225238,-20.9639678146347,-0.165793105959892,0.340634137392044,0.00123962247744203
23.5200266785114,-10.2845125000818,10.4820881225238,-20.9639678146347,-0.165967032313347,0.341227531433105,0.0013266367604956
23.5200266785114,-10.2845125000818,10.4820881225238,-20.9639678146347,-0.166139617562294,0.34181934595108,0.00141406746115535
23.5200266785114,-10.2845125000818,10.4820881225238,-20.9639678146347,-0.166310861706734,0.342409610748291,0.00150191423017532
23.5200266785114,-10.2845125000818,10.4820881225238,-20.9639678146347,-0.166480764746666,0.342998296022415,0.00159017671830952
23.5200266785114,-10.2845125000818,10.4820881225238,-20.9639678146347,-0.166649326682091,0.343585431575775,0.00167885469272733
23.5200266785114,-10.2845125000818,10.4820881225238,-20.9639678146347,-0.166816547513008,0.344171017408371,0.00176794780418277
23.5200266785114,-10.2845125000818,10.4820881225238,-20.9639678146347,-0.166982427239418,0.34475502371788,0.00185745570342988
23.5200266785114,-10.2845125000818,10.4820881225238,-20.9639678146347,-0.16714696586132,0.345337480306625,0.00194737815763801
23.5200266785114,-10.2845125000818,10.4820881225238,-20.9639678146347,-0.167310178279877,0.345918387174606,0.00203771470114589
23.5200266785114,-10.2845125000818,10.4820881225238,-20.9639678146347,-0.167472049593925,0.346497744321823,0.00212846510112286
23.5200266785114,-10.2845125000818,10.4820881225238,-20.9639678146347,-0.167632594704628,0.347075551748276,0.00221962900832295
23.5200266785114,-10.2845125000818,10.4820881225238,-20.9639678146347,-0.167791798710823,0.347651839256287,0.00231120618991554
23.5200266785114,-10.2845125000818,10.4820881225238,-20.9639678146347,-0.167949676513672,0.348226577043533,0.00240319618023932
23.5200266785114,-10.2845125000818,10.4820881225238,-20.9639678146347,-0.168106228113174,0.348799765110016,0.00249559874646366
23.5200266785114,-10.2845125000818,10.4820881225238,-20.9639678146347,-0.168261453509331,0.349371433258057,0.0025884136557579
23.5200266785114,-10.2845125000818,10.4820881225238,-20.9639678146347,-0.168415352702141,0.349941551685333,0.00268164044246078
23.5200266785114,-10.2845125000818,10.4820881225238,-20.9639678146347,-0.168567925691605,0.350510150194168,0.00277527887374163
23.5200266785114,-10.2845125000818,10.4820881225238,-20.9639678146347,-0.168719172477722,0.351077198982239,0.00286932871676981
23.5200266785114,-10.2845125000818,10.4820881225238,-20.9639678146347,-0.168869093060493,0.351642727851868,0.00296378950588405
23.5200266785114,-10.2845125000818,10.4820881225238,-20.9639678146347,-0.16901770234108,0.352206736803055,0.00305866100825369
23.5200266785114,-10.2845125000818,10.4820881225238,-20.9639678146347,-0.16916498541832,0.3527692258358,0.00315394275821745
23.5200266785114,-10.2845125000818,10.4820881225238,-20.9639678146347,-0.169310957193375,0.353330194950104,0.00324963452294469
23.5200266785114,-10.2845125000818,10.4820881225238,-20.9639678146347,-0.169455617666245,0.353889644145966,0.00334573606960475
23.5200266785114,-10.2845125000818,10.4820881225238,-20.9639678146347,-0.169598951935768,0.354447573423386,0.00344224693253636
23.5200266785114,-10.2845125000818,10.4820881225238,-20.9639678146347,-0.169740974903107,0.355003982782364,0.00353916687890887
23.5200266785114,-10.2845125000818,10.4820881225238,-20.9639678146347,-0.16988168656826,0.3555588722229,0.00363649567589164
23.5200266785114,-10.2845125000818,10.4820881225238,-20.9639678146347,-0.170021086931229,0.356112241744995,0.00373423285782337
23.5200266785114,-10.2845125000818,10.4820881225238,-20.9639678146347,-0.170159175992012,0.35666412115097,0.00383237819187343
23.5200266785114,-10.2845125000818,10.4820881225238,-20.9639678146347,-0.170295968651772,0.357214480638504,0.00393093144521117
23.5200266785114,-10.2845125000818,10.4820881225238,-20.9639678146347,-0.170431450009346,0.357763350009918,0.00402989191934466
23.5200266785114,-10.2845125000818,10.4820881225238,-20.9639678146347,-0.170565634965897,0.358310699462891,0.00412925984710455
23.5200266785114,-10.2845125000818,10.4820881225238,-20.9639678146347,-0.170698508620262,0.358856558799744,0.00422903476282954
23.5200266785114,-10.2845125000818,10.4820881225238,-20.9639678146347,-0.170830085873604,0.359400928020477,0.00432921620085835
23.5200266785114,-10.2845125000818,10.4820881225238,-20.9639678146347,-0.170960366725922,0.359943777322769,0.0044298036955297
23.5200266785114,-10.2845125000818,10.4820881225238,-20.9639678146347,-0.171089336276054,0.360485136508942,0.00453079724684358
23.5200266785114,-10.2845125000818,10.4820881225238,-20.9639678146347,-0.171217009425163,0.361025005578995,0.0046321963891387
23.5200266785114,-10.2845125000818,10.4820881225238,-20.9639678146347,-0.171343386173248,0.361563384532928,0.00473400065675378
23.5200266785114,-10.2845125000818,10.4820881225238,-20.9639678146347,-0.171468466520309,0.362100273370743,0.00483621004968882
23.5200266785114,-10.2845125000818,10.4820881225238,-20.9639678146347,-0.171592265367508,0.36263570189476,0.00493882410228252
23.5200266785114,-10.2845125000818,10.4820881225238,-20.9639678146347,-0.171714767813683,0.363169640302658,0.00504184234887362
23.5200266785114,-10.2845125000818,10.4820881225238,-20.9639678146347,-0.171835973858833,0.363702088594437,0.00514526478946209
23.5200266785114,-10.2845125000818,10.4820881225238,-20.9639678146347,-0.171955898404121,0.364233046770096,0.00524909095838666
23.5200266785114,-10.2845125000818,10.4820881225238,-20.9639678146347,-0.172074526548386,0.364762544631958,0.00535332038998604
23.5200266785114,-10.2845125000818,10.4820881225238,-20.9639678146347,-0.172191873192787,0.365290552377701,0.00545795308426023
23.5200266785114,-10.2845125000818,10.4820881225238,-20.9639678146347,-0.172307938337326,0.365817099809647,0.00556298810988665
23.5200266785114,-10.2845125000818,10.4820881225238,-20.9639678146347,-0.172422721982002,0.366342186927795,0.00566842593252659
23.5200266785114,-10.2845125000818,10.4820881225238,-20.9639678146347,-0.172536224126816,0.366865813732147,0.00577426562085748
23.5200266785114,-10.2845125000818,10.4820881225238,-20.9639678146347,-0.172648444771767,0.36738795042038,0.00588050717487931
23.5200266785114,-10.2845125000818,10.4820881225238,-20.9639678146347,-0.172759383916855,0.367908626794815,0.00598715012893081
23.5200266785114,-10.2845125000818,10.4820881225238,-20.9639678146347,-0.17286904156208,0.368427842855453,0.00609419448301196
23.5200266785114,-10.2845125000818,10.4820881225238,-20.9639678146347,-0.172977417707443,0.368945598602295,0.00620163977146149
23.5200266785114,-10.2845125000818,10.4820881225238,-20.9639678146347,-0.173084527254105,0.369461894035339,0.0063094855286181
23.5200266785114,-10.2845125000818,10.4820881225238,-20.9639678146347,-0.173190355300903,0.369976758956909,0.00641773175448179
23.5200266785114,-10.2845125000818,10.4820881225238,-20.9639678146347,-0.173294916749001,0.370490163564682,0.00652637798339128
23.5200266785114,-10.2845125000818,10.4820881225238,-20.9639678146347,-0.173398211598396,0.371002107858658,0.00663542374968529
23.5200266785114,-10.2845125000818,10.4820881225238,-20.9639678146347,-0.173500239849091,0.371512621641159,0.00674486858770251
23.5200266785114,-10.2845125000818,10.4820881225238,-20.9639678146347,-0.173601001501083,0.372021675109863,0.00685471249744296
23.5200266785114,-10.2845125000818,10.4820881225238,-20.9639678146347,-0.173700496554375,0.372529298067093,0.00696495501324534
23.5200266785114,-10.2845125000818,10.4820881225238,-20.9639678146347,-0.173798725008965,0.373035460710526,0.00707559613510966
23.5200266785114,-10.2845125000818,10.4820881225238,-20.9639678146347,-0.173895686864853,0.373540192842484,0.00718663539737463
23.5200266785114,-10.2845125000818,10.4820881225238,-20.9639678146347,-0.17399138212204,0.374043494462967,0.00729807233437896
23.5200266785114,-10.2845125000818,10.4820881225238,-20.9639678146347,-0.174085810780525,0.374545365571976,0.00740990648046136
23.5200266785114,-10.2845125000818,10.4820881225238,-20.9639678146347,-0.17417898774147,0.375045776367188,0.00752213783562183
23.5200266785114,-10.2845125000818,10.4820881225238,-20.9639678146347,-0.174270898103714,0.375544756650925,0.00763476593419909
23.5200266785114,-10.2845125000818,10.4820881225238,-20.9639678146347,-0.174361556768417,0.376042306423187,0.00774779077619314
23.5200266785114,-10.2845125000818,10.4820881225238,-20.9639678146347,-0.17445096373558,0.376538455486298,0.00786121189594269
23.5200266785114,-10.2845125000818,10.4820881225238,-20.9639678146347,-0.174539119005203,0.377033174037933,0.00797502882778645
23.5200266785114,-10.2845125000818,10.4820881225238,-20.9639678146347,-0.174626022577286,0.377526462078094,0.00808924157172441
23.5200266785114,-10.2845125000818,10.4820881225238,-20.9639678146347,-0.174711674451828,0.378018319606781,0.00820384919643402
23.5200266785114,-10.2845125000818,10.4820881225238,-20.9639678146347,-0.17479607462883,0.378508776426315,0.00831885170191526
23.5200266785114,-10.2845125000818,10.4820881225238,-20.9639678146347,-0.174879223108292,0.378997802734375,0.00843424908816814
23.5200266785114,-10.2845125000818,10.4820881225238,-20.9639678146347,-0.174961119890213,0.379485428333282,0.00855004042387009
23.5200266785114,-10.2845125000818,10.4820881225238,-20.9639678146347,-0.175041779875755,0.379971623420715,0.00866622570902109
23.5200266785114,-10.2845125000818,10.4820881225238,-20.9639678146347,-0.175121188163757,0.380456417798996,0.00878280494362116
23.5200266785114,-10.2845125000818,10.4820881225238,-20.9639678146347,-0.17519935965538,0.380939811468124,0.00889977719634771
23.5200266785114,-10.2845125000818,10.4820881225238,-20.9639678146347,-0.175276279449463,0.381421804428101,0.00901714246720076
23.5200266785114,-10.2845125000818,10.4820881225238,-20.9639678146347,-0.175351962447166,0.381902396678925,0.00913490075618029
23.5200266785114,-10.2845125000818,10.4820881225238,-20.9639678146347,-0.175426408648491,0.382381588220596,0.00925305113196373
23.5200266785114,-10.2845125000818,10.4820881225238,-20.9639678146347,-0.175499618053436,0.382859379053116,0.00937159452587366
23.5200266785114,-10.2845125000818,10.4820881225238,-20.9639678146347,-0.175571590662003,0.383335769176483,0.00949052907526493
23.5200266785114,-10.2845125000818,10.4820881225238,-20.9639678146347,-0.17564232647419,0.383810758590698,0.00960985571146011
23.5200266785114,-10.2845125000818,10.4820881225238,-20.9639678146347,-0.175711825489998,0.384284347295761,0.00972957350313663
23.5200266785114,-10.2845125000818,10.4820881225238,-20.9639678146347,-0.175780102610588,0.384756565093994,0.00984968151897192
23.5200266785114,-10.2845125000818,10.4820881225238,-20.9639678146347,-0.175847142934799,0.385227382183075,0.00997018069028854
23.5200266785114,-10.2845125000818,10.4820881225238,-20.9639678146347,-0.175912946462631,0.385696828365326,0.0100910700857639
23.5200266785114,-10.2845125000818,10.4820881225238,-20.9639678146347,-0.175977528095245,0.386164873838425,0.0102123497053981
23.5200266785114,-10.2845125000818,10.4820881225238,-20.9639678146347,-0.176040887832642,0.386631548404694,0.0103340186178684
23.5200266785114,-10.2845125000818,10.4820881225238,-20.9639678146347,-0.17610302567482,0.38709682226181,0.010456076823175
23.5200266785114,-10.2845125000818,10.4820881225238,-20.9639678146347,-0.176163926720619,0.387560725212097,0.0105785243213177
23.5200266785114,-10.2845125000818,10.4820881225238,-20.9639678146347,-0.176223605871201,0.388023257255554,0.010701360180974
23.5200266785114,-10.2845125000818,10.4820881225238,-20.9639678146347,-0.176282063126564,0.388484418392181,0.010824584402144
23.5200266785114,-10.2845125000818,10.4820881225238,-20.9639678146347,-0.176339313387871,0.388944208621979,0.0109481969848275
23.5200266785114,-10.2845125000818,10.4820881225238,-20.9639678146347,-0.17639534175396,0.389402627944946,0.0110721969977021
23.5200266785114,-10.2845125000818,10.4820881225238,-20.9639678146347,-0.176450148224831,0.389859676361084,0.0111965853720903
23.5200266785114,-10.2845125000818,10.4820881225238,-20.9639678146347,-0.176503732800484,0.390315353870392,0.011321360245347
23.5200266785114,-10.2845125000818,10.4820881225238,-20.9639678146347,-0.17655611038208,0.39076966047287,0.0114465225487947
23.5200266785114,-10.2845125000818,10.4820881225238,-20.9639678146347,-0.17660728096962,0.39122262597084,0.0115720713511109
23.5200266785114,-10.2845125000818,10.4820881225238,-20.9639678146347,-0.176657229661942,0.391674220561981,0.011698005720973
23.5200266785114,-10.2845125000818,10.4820881225238,-20.9639678146347,-0.176705971360207,0.392124474048615,0.0118243265897036
23.5200266785114,-10.2845125000818,10.4820881225238,-20.9639678146347,-0.176753506064415,0.392573356628418,0.01195103302598
23.5200266785114,-10.2845125000818,10.4820881225238,-20.9639678146347,-0.176799833774567,0.393020898103714,0.0120781250298023
23.5200266785114,-10.2845125000818,10.4820881225238,-20.9639678146347,-0.176844954490662,0.39346706867218,0.012205601669848
23.5200266785114,-10.2845125000818,10.4820881225238,-20.9639678146347,-0.1768888682127,0.393911898136139,0.0123334629461169
23.5200266785114,-10.2845125000818,10.4820881225238,-20.9639678146347,-0.176931574940681,0.39435538649559,0.0124617088586092
23.5200266785114,-10.2845125000818,10.4820881225238,-20.9639678146347,-0.176973089575768,0.394797533750534,0.0125903394073248
23.5200266785114,-10.2845125000818,10.4820881225238,-20.9639678146347,-0.177013397216797,0.39523833990097,0.0127193536609411
23.5200266785114,-10.2845125000818,10.4820881225238,-20.9639678146347,-0.177052512764931,0.395677804946899,0.0128487506881356
23.5200266785114,-10.2845125000818,10.4820881225238,-20.9639678146347,-0.177090421319008,0.396115928888321,0.0129785314202309
23.5200266785114,-10.2845125000818,10.4820881225238,-20.9639678146347,-0.17712713778019,0.396552711725235,0.0131086949259043
23.5200266785114,-10.2845125000818,10.4820881225238,-20.9639678146347,-0.177162662148476,0.396988153457642,0.0132392412051558
23.5200266785114,-10.2845125000818,10.4820881225238,-20.9639678146347,-0.177196979522705,0.397422283887863,0.013370169326663
23.5200266785114,-10.2845125000818,10.4820881225238,-20.9639678146347,-0.177230104804039,0.397855073213577,0.0135014792904258
23.5200266785114,-10.2845125000818,10.4820881225238,-20.9639678146347,-0.177262037992477,0.398286521434784,0.0136331710964441
23.5200266785114,-10.2845125000818,10.4820881225238,-20.9639678146347,-0.177292793989182,0.398716658353806,0.0137652447447181
23.5200266785114,-10.2845125000818,10.4820881225238,-20.9639678146347,-0.17732235789299,0.399145483970642,0.013897699303925
23.5200266785114,-10.2845125000818,10.4820881225238,-20.9639678146347,-0.177350729703903,0.399572968482971,0.014030534774065
23.5200266785114,-10.2845125000818,10.4820881225238,-20.9639678146347,-0.177377924323082,0.399999141693115,0.0141637502238154
23.5200266785114,-10.2845125000818,10.4820881225238,-20.9639678146347,-0.177403926849365,0.400424003601074,0.0142973456531763
23.5200266785114,-10.2845125000818,10.4820881225238,-20.9639678146347,-0.177428752183914,0.400847554206848,0.0144313210621476
23.5200266785114,-10.2845125000818,10.4820881225238,-20.9639678146347,-0.177452385425568,0.401269763708115,0.0145656764507294
23.5200266785114,-10.2845125000818,10.4820881225238,-20.9639678146347,-0.177474841475487,0.401690661907196,0.014700410887599
23.5200266785114,-10.2845125000818,10.4820881225238,-20.9639678146347,-0.177496120333672,0.402110248804092,0.0148355243727565
23.5200266785114,-10.2845125000818,10.4820881225238,-20.9639678146347,-0.177516222000122,0.402528554201126,0.0149710159748793
23.5200266785114,-10.2845125000818,10.4820881225238,-20.9639678146347,-0.177535146474838,0.402945548295975,0.0151068856939673
23.5200266785114,-10.2845125000818,10.4820881225238,-20.9639678146347,-0.17755289375782,0.403361231088638,0.0152431335300207
23.5200266785114,-10.2845125000818,10.4820881225238,-20.9639678146347,-0.177569463849068,0.403775602579117,0.0153797594830394
23.5200266785114,-10.2845125000818,10.4820881225238,-20.9639678146347,-0.177584871649742,0.404188692569733,0.0155167626217008
23.5200266785114,-10.2845125000818,10.4820881225238,-20.9639678146347,-0.177599102258682,0.404600471258163,0.0156541429460049
23.5200266785114,-10.2845125000818,10.4820881225238,-20.9639678146347,-0.177612155675888,0.405010968446732,0.0157919004559517
23.5200266785114,-10.2845125000818,10.4820881225238,-20.9639678146347,-0.177624046802521,0.405420154333115,0.0159300342202187
23.5200266785114,-10.2845125000818,10.4820881225238,-20.9639678146347,-0.17763477563858,0.405828058719635,0.0160685442388058
23.5200266785114,-10.2845125000818,10.4820881225238,-20.9639678146347,-0.177644327282906,0.406234681606293,0.016207430511713
23.5200266785114,-10.2845125000818,10.4820881225238,-20.9639678146347,-0.177652716636658,0.406640022993088,0.0163466911762953
23.5200266785114,-10.2845125000818,10.4820881225238,-20.9639678146347,-0.177659943699837,0.40704408288002,0.0164863280951977
23.5200266785114,-10.2845125000818,10.4820881225238,-20.9639678146347,-0.177666008472443,0.407446831464767,0.0166263394057751
23.5200266785114,-10.2845125000818,10.4820881225238,-20.9639678146347,-0.177670910954475,0.407848298549652,0.0167667251080275
23.5200266785114,-10.2845125000818,10.4820881225238,-20.9639678146347,-0.177674666047096,0.408248513936996,0.0169074852019548
23.5200266785114,-10.2845125000818,10.4820881225238,-20.9639678146347,-0.177677258849144,0.408647447824478,0.0170486196875572
23.5200266785114,-10.2845125000818,10.4820881225238,-20.9639678146347,-0.177678689360619,0.409045100212097,0.0171901285648346
23.5200266785114,-10.2845125000818,10.4820881225238,-20.9639678146347,-0.177678972482681,0.409441471099854,0.0173320099711418
23.5200266785114,-10.2845125000818,10.4820881225238,-20.9639678146347,-0.177678093314171,0.40983659029007,0.0174742639064789
23.5200266785114,-10.2845125000818,10.4820881225238,-20.9639678146347,-0.177676066756248,0.410230427980423,0.0176168903708458
23.5200266785114,-10.2845125000818,10.4820881225238,-20.9639678146347,-0.177672892808914,0.410623013973236,0.0177598893642426
23.5200266785114,-10.2845125000818,10.4820881225238,-20.9639678146347,-0.177668556571007,0.411014318466187,0.0179032608866692
23.5200266785114,-10.2845125000818,10.4820881225238,-20.9639678146347,-0.177663072943687,0.411404371261597,0.0180470049381256
23.5200266785114,-10.2845125000818,10.4820881225238,-20.9639678146347,-0.177656441926956,0.411793142557144,0.0181911215186119
23.5200266785114,-10.2845125000818,10.4820881225238,-20.9639678146347,-0.177648663520813,0.412180662155151,0.0183356087654829
23.5200266785114,-10.2845125000818,10.4820881225238,-20.9639678146347,-0.177639752626419,0.412566930055618,0.0184804666787386
23.5200266785114,-10.2845125000818,10.4820881225238,-20.9639678146347,-0.177629694342613,0.412951946258545,0.018625695258379
23.5200266785114,-10.2845125000818,10.4820881225238,-20.9639678146347,-0.177618488669395,0.413335710763931,0.0187712945044041
23.5200266785114,-10.2845125000818,10.4820881225238,-20.9639678146347,-0.177606150507927,0.413718223571777,0.0189172644168139
23.5200266785114,-10.2845125000818,10.4820881225238,-20.9639678146347,-0.177592664957047,0.414099484682083,0.0190636031329632
23.5200266785114,-10.2845125000818,10.4820881225238,-20.9639678146347,-0.177578046917915,0.414479494094849,0.0192103125154972
23.5200266785114,-10.2845125000818,10.4820881225238,-20.9639678146347,-0.177562281489372,0.414858251810074,0.0193573907017708
23.5200266785114,-10.2845125000818,10.4820881225238,-20.9639678146347,-0.177545383572578,0.415235787630081,0.0195048376917839
23.5200266785114,-10.2845125000818,10.4820881225238,-20.9639678146347,-0.177527353167534,0.415612071752548,0.0196526534855366
23.5200266785114,-10.2845125000818,10.4820881225238,-20.9639678146347,-0.177508190274239,0.415987133979797,0.0198008362203836
23.5200266785114,-10.2845125000818,10.4820881225238,-20.9639678146347,-0.177487894892693,0.416360944509506,0.0199493877589703
23.5200266785114,-10.2845125000818,10.4820881225238,-20.9639678146347,-0.177466467022896,0.416733533143997,0.0200983062386513
23.5200266785114,-10.2845125000818,10.4820881225238,-20.9639678146347,-0.17744392156601,0.417104870080948,0.0202475935220718
23.5200266785114,-10.2845125000818,10.4820881225238,-20.9639678146347,-0.177420243620872,0.417474985122681,0.0203972477465868
23.5200266785114,-10.2845125000818,10.4820881225238,-20.9639678146347,-0.177395433187485,0.417843878269196,0.0205472689121962
23.5200266785114,-10.2845125000818,10.4820881225238,-20.9639678146347,-0.177369505167007,0.418211549520493,0.0206976551562548
23.5200266785114,-10.2845125000818,10.4820881225238,-20.9639678146347,-0.177342444658279,0.418577969074249,0.0208484083414078
23.5200266785114,-10.2845125000818,10.4820881225238,-20.9639678146347,-0.177314266562462,0.418943166732788,0.02099952660501
23.5200266785114,-10.2845125000818,10.4820881225238,-20.9639678146347,-0.177284970879555,0.419307172298431,0.0211510118097067
23.5200266785114,-10.2845125000818,10.4820881225238,-20.9639678146347,-0.177254557609558,0.419669955968857,0.0213028620928526
23.5200266785114,-10.2845125000818,10.4820881225238,-20.9639678146347,-0.177223026752472,0.420031517744064,0.0214550774544477
23.5200266785114,-10.2845125000818,10.4820881225238,-20.9639678146347,-0.177190378308296,0.420391857624054,0.0216076578944921
23.5200266785114,-10.2845125000818,10.4820881225238,-20.9639678146347,-0.177156612277031,0.420750975608826,0.0217606015503407
23.5200266785114,-10.2845125000818,10.4820881225238,-20.9639678146347,-0.177121728658676,0.421108901500702,0.0219139102846384
23.5200266785114,-10.2845125000818,10.4820881225238,-20.9639678146347,-0.177085727453232,0.42146560549736,0.0220675822347403
23.5200266785114,-10.2845125000818,10.4820881225238,-20.9639678146347,-0.177048623561859,0.421821117401123,0.0222216174006462
23.5200266785114,-10.2845125000818,10.4820881225238,-20.9639678146347,-0.177010402083397,0.422175407409668,0.0223760157823563
23.5200266785114,-10.2845125000818,10.4820881225238,-20.9639678146347,-0.176971063017845,0.422528505325317,0.0225307773798704
23.5200266785114,-10.2845125000818,10.4820881225238,-20.9639678146347,-0.176930621266365,0.422880411148071,0.0226859021931887
23.5200266785114,-10.2845125000818,10.4820881225238,-20.9639678146347,-0.176889076828957,0.423231095075607,0.0228413883596659
23.5200266785114,-10.2845125000818,10.4820881225238,-20.9639678146347,-0.17684642970562,0.423580586910248,0.0229972377419472
23.5200266785114,-10.2845125000818,10.4820881225238,-20.9639678146347,-0.176802679896355,0.423928886651993,0.0231534484773874
23.5200266785114,-10.2845125000818,10.4820881225238,-20.9639678146347,-0.176757827401161,0.424275994300842,0.0233100205659866
23.5200266785114,-10.2845125000818,10.4820881225238,-20.9639678146347,-0.176711872220039,0.424621909856796,0.0234669540077448
23.5200266785114,-10.2845125000818,10.4820881225238,-20.9639678146347,-0.176664814352989,0.424966633319855,0.0236242469400167
23.5200266785114,-10.2845125000818,10.4820881225238,-20.9639678146347,-0.176616653800011,0.425310164690018,0.0237819012254477
23.5200266785114,-10.2845125000818,10.4820881225238,-20.9639678146347,-0.176567390561104,0.425652533769608,0.0239399150013924
23.5200266785114,-10.2845125000818,10.4820881225238,-20.9639678146347,-0.17651703953743,0.425993710756302,0.024098290130496
23.5200266785114,-10.2845125000818,10.4820881225238,-20.9639678146347,-0.176465585827827,0.426333695650101,0.0242570247501135
23.5200266785114,-10.2845125000818,10.4820881225238,-20.9639678146347,-0.176413044333458,0.426672518253326,0.0244161169975996
23.5200266785114,-10.2845125000818,10.4820881225238,-20.9639678146347,-0.17635940015316,0.427010148763657,0.0245755687355995
23.5200266785114,-10.2845125000818,10.4820881225238,-20.9639678146347,-0.176304668188095,0.427346616983414,0.0247353799641132
23.5200266785114,-10.2845125000818,10.4820881225238,-20.9639678146347,-0.176248848438263,0.427681893110275,0.0248955488204956
23.5200266785114,-10.2845125000818,10.4820881225238,-20.9639678146347,-0.176191940903664,0.428016006946564,0.0250560771673918
23.5200266785114,-10.2845125000818,10.4820881225238,-20.9639678146347,-0.176133945584297,0.428348958492279,0.0252169631421566
23.5200266785114,-10.2845125000818,10.4820881225238,-20.9639678146347,-0.176074862480164,0.428680747747421,0.0253782067447901
23.5200266785114,-10.2845125000818,10.4820881225238,-20.9639678146347,-0.176014691591263,0.42901137471199,0.0255398061126471
23.5200266785114,-10.2845125000818,10.4820881225238,-20.9639678146347,-0.175953432917595,0.429340809583664,0.0257017631083727
23.5200266785114,-10.2845125000818,10.4820881225238,-20.9639678146347,-0.175891101360321,0.429669111967087,0.025864077731967
23.5200266785114,-10.2845125000818,10.4820881225238,-20.9639678146347,-0.17582768201828,0.429996252059937,0.0260267481207848
23.5200266785114,-10.2845125000818,10.4820881225238,-20.9639678146347,-0.175763189792633,0.430322229862213,0.0261897742748261
23.5200266785114,-10.2845125000818,10.4820881225238,-20.9639678146347,-0.175697609782219,0.430647045373917,0.0263531561940908
23.5200266785114,-10.2845125000818,10.4820881225238,-20.9639678146347,-0.175630956888199,0.430970698595047,0.0265168938785791
23.5200266785114,-10.2845125000818,10.4820881225238,-20.9639678146347,-0.175563231110573,0.431293219327927,0.0266809873282909
23.5200266785114,-10.2845125000818,10.4820881225238,-20.9639678146347,-0.175494432449341,0.431614577770233,0.0268454346805811
23.5200266785114,-10.2845125000818,10.4820881225238,-20.9639678146347,-0.175424560904503,0.431934773921967,0.0270102359354496
23.5200266785114,-10.2845125000818,10.4820881225238,-20.9639678146347,-0.175353616476059,0.432253837585449,0.0271753929555416
23.5200266785114,-10.2845125000818,10.4820881225238,-20.9639678146347,-0.175281599164009,0.432571768760681,0.027340903878212
23.5200266785114,-10.2845125000818,10.4820881225238,-20.9639678146347,-0.175208508968353,0.43288853764534,0.0275067687034607
23.5200266785114,-10.2845125000818,10.4820881225238,-20.9639678146347,-0.175134345889091,0.433204174041748,0.0276729855686426
23.5200266785114,-10.2845125000818,10.4820881225238,-20.9639678146347,-0.175059124827385,0.433518677949905,0.0278395563364029
23.5200266785114,-10.2845125000818,10.4820881225238,-20.9639678146347,-0.174982830882072,0.433832049369812,0.0280064791440964
23.5200266785114,-10.2845125000818,10.4820881225238,-20.9639678146347,-0.174905478954315,0.434144288301468,0.0281737558543682
23.5200266785114,-10.2845125000818,10.4820881225238,-20.9639678146347,-0.174827054142952,0.434455394744873,0.0283413846045733
23.5200266785114,-10.2845125000818,10.4820881225238,-20.9639678146347,-0.174747571349144,0.434765368700027,0.0285093653947115
23.5200266785114,-10.2845125000818,10.4820881225238,-20.9639678146347,-0.174667030572891,0.435074210166931,0.0286776963621378
23.5200266785114,-10.2845125000818,10.4820881225238,-20.9639678146347,-0.174585431814194,0.435381919145584,0.0288463793694973
23.5200266785114,-10.2845125000818,10.4820881225238,-20.9639678146347,-0.174502775073051,0.435688495635986,0.0290154125541449
23.5200266785114,-10.2845125000818,10.4820881225238,-20.9639678146347,-0.174419060349464,0.43599396944046,0.0291847977787256
23.5200266785114,-10.2845125000818,10.4820881225238,-20.9639678146347,-0.174334287643433,0.436298310756683,0.0293545331805944
23.5200266785114,-10.2845125000818,10.4820881225238,-20.9639678146347,-0.174248456954956,0.436601519584656,0.0295246187597513
23.5200266785114,-10.2845125000818,10.4820881225238,-20.9639678146347,-0.174161583185196,0.4369036257267,0.0296950545161963
23.5200266785114,-10.2845125000818,10.4820881225238,-20.9639678146347,-0.174073651432991,0.437204599380493,0.0298658385872841
23.5200266785114,-10.2845125000818,10.4820881225238,-20.9639678146347,-0.173984661698341,0.437504470348358,0.03003697283566
23.5200266785114,-10.2845125000818,10.4820881225238,-20.9639678146347,-0.173894628882408,0.437803238630295,0.0302084553986788
23.5200266785114,-10.2845125000818,10.4820881225238,-20.9639678146347,-0.173803552985191,0.438100904226303,0.0303802881389856
23.5200266785114,-10.2845125000818,10.4820881225238,-20.9639678146347,-0.17371141910553,0.438397437334061,0.0305524691939354
23.5200266785114,-10.2845125000818,10.4820881225238,-20.9639678146347,-0.173618242144585,0.43869286775589,0.0307249967008829
23.5200266785114,-10.2845125000818,10.4820881225238,-20.9639678146347,-0.173524022102356,0.438987195491791,0.0308978725224733
23.5200266785114,-10.2845125000818,10.4820881225238,-20.9639678146347,-0.173428758978844,0.439280420541763,0.0310710966587067
23.5200266785114,-10.2845125000818,10.4820881225238,-20.9639678146347,-0.173332452774048,0.439572542905808,0.0312446672469378
23.5200266785114,-10.2845125000818,10.4820881225238,-20.9639678146347,-0.173235103487968,0.439863592386246,0.0314185842871666
23.5200266785114,-10.2845125000818,10.4820881225238,-20.9639678146347,-0.173136726021767,0.440153539180756,0.0315928496420383
23.5200266785114,-10.2845125000818,10.4820881225238,-20.9639678146347,-0.173037305474281,0.440442383289337,0.0317674614489079
23.5200266785114,-10.2845125000818,10.4820881225238,-20.9639678146347,-0.172936841845512,0.44073012471199,0.0319424197077751
23.5200266785114,-10.2845125000818,10.4820881225238,-20.9639678146347,-0.172835350036621,0.441016793251038,0.0321177206933498
23.5200266785114,-10.2845125000818,10.4820881225238,-20.9639678146347,-0.172732815146446,0.441302359104156,0.0322933681309223
23.5200266785114,-10.2845125000818,10.4820881225238,-20.9639678146347,-0.172629252076149,0.441586852073669,0.0324693620204926
23.5200266785114,-10.2845125000818,10.4820881225238,-20.9639678146347,-0.172524660825729,0.441870242357254,0.0326456986367702
23.5200266785114,-10.2845125000818,10.4820881225238,-20.9639678146347,-0.172419041395187,0.442152559757233,0.0328223817050457
23.5200266785114,-10.2845125000818,10.4820881225238,-20.9639678146347,-0.172312393784523,0.442433804273605,0.0329994075000286
23.5200266785114,-10.2845125000818,10.4820881225238,-20.9639678146347,-0.172204717993736,0.44271394610405,0.0331767797470093
23.5200266785114,-10.2845125000818,10.4820881225238,-20.9639678146347,-0.172096014022827,0.442993015050888,0.0333544947206974
23.5200266785114,-10.2845125000818,10.4820881225238,-20.9639678146347,-0.171986281871796,0.44327101111412,0.033532552421093
23.5200266785114,-10.2845125000818,10.4820881225238,-20.9639678146347,-0.171875521540642,0.443547934293747,0.033710952848196
23.5200266785114,-10.2845125000818,10.4820881225238,-20.9639678146347,-0.171763733029366,0.443823784589767,0.0338896960020065
23.5200266785114,-10.2845125000818,10.4820881225238,-20.9639678146347,-0.171650931239128,0.444098562002182,0.0340687818825245
23.5200266785114,-10.2845125000818,10.4820881225238,-20.9639678146347,-0.171537101268768,0.444372266530991,0.0342482104897499
23.5200266785114,-10.2845125000818,10.4820881225238,-20.9639678146347,-0.171422258019447,0.444644927978516,0.0344279818236828
23.5200266785114,-10.2845125000818,10.4820881225238,-20.9639678146347,-0.171306386590004,0.444916516542435,0.0346080958843231
23.5200266785114,-10.2845125000818,10.4820881225238,-20.9639678146347,-0.171189501881599,0.445187032222748,0.0347885489463806
23.5200266785114,-10.2845125000818,10.4820881225238,-20.9639678146347,-0.171071603894234,0.445456504821777,0.0349693447351456
23.5200266785114,-10.2845125000818,10.4820881225238,-20.9639678146347,-0.170952692627907,0.445724904537201,0.0351504795253277
23.5200266785114,-10.2845125000818,10.4820881225238,-20.9639678146347,-0.170832768082619,0.445992261171341,0.0353319570422173
23.5200266785114,-10.2845125000818,10.4820881225238,-20.9639678146347,-0.170711830258369,0.446258544921875,0.035513773560524
23.5200266785114,-10.2845125000818,10.4820881225238,-20.9639678146347,-0.170589879155159,0.446523785591125,0.0356959290802479
23.5200266785114,-10.2845125000818,10.4820881225238,-20.9639678146347,-0.170466914772987,0.446787983179092,0.0358784273266792
23.5200266785114,-10.2845125000818,10.4820881225238,-20.9639678146347,-0.170342952013016,0.447051137685776,0.0360612645745277
23.5200266785114,-10.2845125000818,10.4820881225238,-20.9639678146347,-0.170217975974083,0.447313219308853,0.0362444408237934
23.5200266785114,-10.2845125000818,10.4820881225238,-20.9639678146347,-0.17009200155735,0.447574257850647,0.0364279560744762
23.5200266785114,-10.2845125000818,10.4820881225238,-20.9639678146347,-0.169965013861656,0.447834253311157,0.0366118103265762
23.5200266785114,-10.2845125000818,10.4820881225238,-20.9639678146347,-0.169837027788162,0.448093205690384,0.0367959998548031
23.5200266785114,-10.2845125000818,10.4820881225238,-20.9639678146347,-0.169708043336868,0.448351114988327,0.0369805283844471
23.5200266785114,-10.2845125000818,10.4820881225238,-20.9639678146347,-0.169578045606613,0.448608011007309,0.0371653959155083
23.5200266785114,-10.2845125000818,10.4820881225238,-20.9639678146347,-0.169447049498558,0.448863863945007,0.0373505987226963
23.5200266785114,-10.2845125000818,10.4820881225238,-20.9639678146347,-0.169315055012703,0.449118673801422,0.0375361405313015
23.5200266785114,-10.2845125000818,10.4820881225238,-20.9639678146347,-0.169182062149048,0.449372440576553,0.0377220176160336
23.5200266785114,-10.2845125000818,10.4820881225238,-20.9639678146347,-0.169048085808754,0.449625194072723,0.0379082299768925
23.5200266785114,-10.2845125000818,10.4820881225238,-20.9639678146347,-0.16891311109066,0.44987690448761,0.0380947813391685
23.5200266785114,-10.2845125000818,10.4820881225238,-20.9639678146347,-0.168777137994766,0.450127601623535,0.0382816679775715
23.5200266785114,-10.2845125000818,10.4820881225238,-20.9639678146347,-0.168640166521072,0.450377255678177,0.0384688898921013
23.5200266785114,-10.2845125000818,10.4820881225238,-20.9639678146347,-0.16850221157074,0.450625896453857,0.038656447082758
23.5200266785114,-10.2845125000818,10.4820881225238,-20.9639678146347,-0.168363258242607,0.450873523950577,0.0388443395495415
23.5200266785114,-10.2845125000818,10.4820881225238,-20.9639678146347,-0.168223321437836,0.451120138168335,0.0390325672924519
23.5200266785114,-10.2845125000818,10.4820881225238,-20.9639678146347,-0.168082401156425,0.45136570930481,0.0392211303114891
23.5200266785114,-10.2845125000818,10.4820881225238,-20.9639678146347,-0.167940497398376,0.451610267162323,0.0394100248813629
23.5200266785114,-10.2845125000818,10.4820881225238,-20.9639678146347,-0.167797610163689,0.451853811740875,0.0395992547273636
23.5200266785114,-10.2845125000818,10.4820881225238,-20.9639678146347,-0.167653724551201,0.452096343040466,0.0397888161242008
23.5200266785114,-10.2845125000818,10.4820881225238,-20.9639678146347,-0.167508870363235,0.452337861061096,0.0399787127971649
23.5200266785114,-10.2845125000818,10.4820881225238,-20.9639678146347,-0.167363032698631,0.452578395605087,0.0401689410209656
23.5200266785114,-10.2845125000818,10.4820881225238,-20.9639678146347,-0.167216211557388,0.452817916870117,0.0403595045208931
23.5200266785114,-10.2845125000818,10.4820881225238,-20.9639678146347,-0.167068406939507,0.453056424856186,0.0405503995716572
23.5200266785114,-10.2845125000818,10.4820881225238,-20.9639678146347,-0.166919633746147,0.453293919563293,0.0407416261732578
23.5200266785114,-10.2845125000818,10.4820881225238,-20.9639678146347,-0.166769877076149,0.453530430793762,0.040933184325695
23.5200266785114,-10.2845125000818,10.4820881225238,-20.9639678146347,-0.166619151830673,0.45376592874527,0.0411250740289688
23.5200266785114,-10.2845125000818,10.4820881225238,-20.9639678146347,-0.166467443108559,0.454000443220139,0.0413172952830791
23.5200266785114,-10.2845125000818,10.4820881225238,-20.9639678146347,-0.166314765810966,0.454233944416046,0.041509848088026
23.5200266785114,-10.2845125000818,10.4820881225238,-20.9639678146347,-0.166161119937897,0.454466462135315,0.0417027324438095
23.5200266785114,-10.2845125000818,10.4820881225238,-20.9639678146347,-0.166006490588188,0.454697996377945,0.0418959483504295
23.5200266785114,-10.2845125000818,10.4820881225238,-20.9639678146347,-0.165850892663002,0.454928517341614,0.0420894920825958
23.5200266785114,-10.2845125000818,10.4820881225238,-20.9639678146347,-0.165694326162338,0.455158054828644,0.0422833673655987
23.5200266785114,-10.2845125000818,10.4820881225238,-20.9639678146347,-0.165536805987358,0.455386608839035,0.0424775704741478
23.5200266785114,-10.2845125000818,10.4820881225238,-20.9639678146347,-0.1653783172369,0.455614179372787,0.0426721051335335
23.5200266785114,-10.2845125000818,10.4820881225238,-20.9639678146347,-0.165218859910965,0.455840766429901,0.0428669676184654
23.5200266785114,-10.2845125000818,10.4820881225238,-20.9639678146347,-0.165058434009552,0.456066370010376,0.0430621579289436
23.5200266785114,-10.2845125000818,10.4820881225238,-20.9639678146347,-0.164897054433823,0.456290990114212,0.0432576760649681
23.5200266785114,-10.2845125000818,10.4820881225238,-20.9639678146347,-0.164734706282616,0.456514656543732,0.0434535220265388
23.5200266785114,-10.2845125000818,10.4820881225238,-20.9639678146347,-0.164571404457092,0.456737339496613,0.0436496958136559
23.5200266785114,-10.2845125000818,10.4820881225238,-20.9639678146347,-0.164407148957253,0.456959038972855,0.0438461974263191
23.5200266785114,-10.2845125000818,10.4820881225238,-20.9639678146347,-0.164241924881935,0.457179754972458,0.0440430268645287
23.5200266785114,-10.2845125000818,10.4820881225238,-20.9639678146347,-0.164075747132301,0.457399517297745,0.0442401841282845
23.5200266785114,-10.2845125000818,10.4820881225238,-20.9639678146347,-0.163908615708351,0.457618296146393,0.0444376692175865
23.5200266785114,-10.2845125000818,10.4820881225238,-20.9639678146347,-0.163740530610085,0.457836121320724,0.0446354784071445
23.5200266785114,-10.2845125000818,10.4820881225238,-20.9639678146347,-0.163571491837502,0.45805299282074,0.0448336154222488
23.5200266785114,-10.2845125000818,10.4820881225238,-20.9639678146347,-0.163401499390602,0.458268880844116,0.0450320765376091
23.5200266785114,-10.2845125000818,10.4820881225238,-20.9639678146347,-0.163230553269386,0.458483815193176,0.0452308654785156
23.5200266785114,-10.2845125000818,10.4820881225238,-20.9639678146347,-0.163058668375015,0.45869779586792,0.0454299785196781
23.5200266785114,-10.2845125000818,10.4820881225238,-20.9639678146347,-0.162885829806328,0.458910822868347,0.0456294193863869
23.5200266785114,-10.2845125000818,10.4820881225238,-20.9639678146347,-0.162712052464485,0.459122896194458,0.0458291843533516
23.5200266785114,-10.2845125000818,10.4820881225238,-20.9639678146347,-0.162537321448326,0.45933398604393,0.0460292734205723
23.5200266785114,-10.2845125000818,10.4820881225238,-20.9639678146347,-0.162361651659012,0.459544152021408,0.0462296865880489
23.5200266785114,-10.2845125000818,10.4820881225238,-20.9639678146347,-0.162185043096542,0.45975336432457,0.0464304238557816
23.5200266785114,-10.2845125000818,10.4820881225238,-20.9639678146347,-0.162007480859756,0.459961622953415,0.0466314852237701
23.5200266785114,-10.2845125000818,10.4820881225238,-20.9639678146347,-0.161828979849815,0.460168927907944,0.0468328669667244
23.5200266785114,-10.2845125000818,10.4820881225238,-20.9639678146347,-0.161649540066719,0.460375279188156,0.0470345728099346
23.5200266785114,-10.2845125000818,10.4820881225238,-20.9639678146347,-0.161469161510468,0.460580706596375,0.0472366027534008
23.5200266785114,-10.2845125000818,10.4820881225238,-20.9639678146347,-0.161287844181061,0.460785180330276,0.0474389530718327
23.5200266785114,-10.2845125000818,10.4820881225238,-20.9639678146347,-0.16110560297966,0.460988700389862,0.0476416274905205
23.5200266785114,-10.2845125000818,10.4820881225238,-20.9639678146347,-0.160922423005104,0.461191296577454,0.047844622284174
23.5200266785114,-10.2845125000818,10.4820881225238,-20.9639678146347,-0.160738304257393,0.461392968893051,0.0480479411780834
23.5200266785114,-10.2845125000818,10.4820881225238,-20.9639678146347,-0.160553261637688,0.461593687534332,0.0482515804469585
23.5200266785114,-10.2845125000818,10.4820881225238,-20.9639678146347,-0.160367280244827,0.461793482303619,0.0484555400907993
23.5200266785114,-10.2845125000818,10.4820881225238,-20.9639678146347,-0.160180374979973,0.461992353200912,0.0486598201096058
23.5200266785114,-10.2845125000818,10.4820881225238,-20.9639678146347,-0.159992530941963,0.462190270423889,0.0488644205033779
23.5200266785114,-10.2845125000818,10.4820881225238,-20.9639678146347,-0.15980376303196,0.462387263774872,0.0490693412721157
23.5200266785114,-10.2845125000818,10.4820881225238,-20.9639678146347,-0.159614071249962,0.46258333325386,0.0492745824158192
23.5200266785114,-10.2845125000818,10.4820881225238,-20.9639678146347,-0.15942345559597,0.462778478860855,0.0494801439344883
23.5200266785114,-10.2845125000818,10.4820881225238,-20.9639678146347,-0.159231916069984,0.462972700595856,0.0496860258281231
23.5200266785114,-10.2845125000818,10.4820881225238,-20.9639678146347,-0.159039452672005,0.463165998458862,0.0498922243714333
23.5200266785114,-10.2845125000818,10.4820881225238,-20.9639678146347,-0.158846065402031,0.463358402252197,0.0500987432897091
23.5200266785114,-10.2845125000818,10.4820881225238,-20.9639678146347,-0.158651754260063,0.463549882173538,0.0503055825829506
23.5200266785114,-10.2845125000818,10.4820881225238,-20.9639678146347,-0.158456519246101,0.463740438222885,0.0505127385258675
23.5200266785114,-10.2845125000818,10.4820881225238,-20.9639678146347,-0.158260375261307,0.463930070400238,0.0507202111184597
23.5200266785114,-10.2845125000818,10.4820881225238,-20.9639678146347,-0.158063307404518,0.464118808507919,0.0509280040860176
23.5200266785114,-10.2845125000818,10.4820881225238,-20.9639678146347,-0.157865330576897,0.464306622743607,0.0511361137032509
23.5200266785114,-10.2845125000818,10.4820881225238,-20.9639678146347,-0.157666429877281,0.464493542909622,0.0513445399701595
23.5200266785114,-10.2845125000818,10.4820881225238,-20.9639678146347,-0.157466620206833,0.464679539203644,0.0515532828867435
23.5200266785114,-10.2845125000818,10.4820881225238,-20.9639678146347,-0.157265901565552,0.464864641427994,0.0517623424530029
23.5200266785114,-10.2845125000818,10.4820881225238,-20.9639678146347,-0.157064273953438,0.465048849582672,0.0519717186689377
23.5200266785114,-10.2845125000818,10.4820881225238,-20.9639678146347,-0.156861737370491,0.465232133865356,0.0521814115345478
23.5200266785114,-10.2845125000818,10.4820881225238,-20.9639678146347,-0.156658291816711,0.465414524078369,0.0523914210498333
23.5200266785114,-10.2845125000818,10.4820881225238,-20.9639678146347,-0.156453937292099,0.46559602022171,0.0526017434895039
23.5200266785114,-10.2845125000818,10.4820881225238,-20.9639678146347,-0.156248673796654,0.46577662229538,0.0528123825788498
23.5200266785114,-10.2845125000818,10.4820881225238,-20.9639678146347,-0.156042501330376,0.465956330299377,0.0530233345925808
23.5200266785114,-10.2845125000818,10.4820881225238,-20.9639678146347,-0.155835434794426,0.466135144233704,0.0532346032559872
23.5200266785114,-10.2845125000818,10.4820881225238,-20.9639678146347,-0.155627459287643,0.466313064098358,0.0534461848437786
23.5200266785114,-10.2845125000818,10.4820881225238,-20.9639678146347,-0.155418574810028,0.466490089893341,0.0536580830812454
23.5200266785114,-10.2845125000818,10.4820881225238,-20.9639678146347,-0.155208796262741,0.466666251420975,0.0538702942430973
23.5200266785114,-10.2845125000818,10.4820881225238,-20.9639678146347,-0.154998123645782,0.466841518878937,0.0540828183293343
23.5200266785114,-10.2845125000818,10.4820881225238,-20.9639678146347,-0.154786542057991,0.467015892267227,0.0542956553399563
23.5200266785114,-10.2845125000818,10.4820881225238,-20.9639678146347,-0.154574066400528,0.467189401388168,0.0545088052749634
23.5200266785114,-10.2845125000818,10.4820881225238,-20.9639678146347,-0.154360696673393,0.467362016439438,0.0547222681343555
23.5200266785114,-10.2845125000818,10.4820881225238,-20.9639678146347,-0.154146432876587,0.467533767223358,0.0549360439181328
23.5200266785114,-10.2845125000818,10.4820881225238,-20.9639678146347,-0.153931275010109,0.467704623937607,0.0551501326262951
23.5200266785114,-10.2845125000818,10.4820881225238,-20.9639678146347,-0.153715223073959,0.467874616384506,0.0553645305335522
23.5200266785114,-10.2845125000818,10.4820881225238,-20.9639678146347,-0.153498277068138,0.468043714761734,0.0555792413651943
23.5200266785114,-10.2845125000818,10.4820881225238,-20.9639678146347,-0.153280436992645,0.468211948871613,0.0557942651212215
23.5200266785114,-10.2845125000818,10.4820881225238,-20.9639678146347,-0.153061717748642,0.468379318714142,0.0560095980763435
23.5200266785114,-10.2845125000818,10.4820881225238,-20.9639678146347,-0.152842104434967,0.468545824289322,0.0562252439558506
23.5200266785114,-10.2845125000818,10.4820881225238,-20.9639678146347,-0.152621611952782,0.468711465597153,0.0564411990344524
23.5200266785114,-10.2845125000818,10.4820881225238,-20.9639678146347,-0.152400225400925,0.468876242637634,0.056657463312149
23.5200266785114,-10.2845125000818,10.4820881225238,-20.9639678146347,-0.152177959680557,0.469040155410767,0.0568740367889404
23.5200266785114,-10.2845125000818,10.4820881225238,-20.9639678146347,-0.151954814791679,0.46920320391655,0.0570909231901169
23.5200266785114,-10.2845125000818,10.4820881225238,-20.9639678146347,-0.15173077583313,0.469365388154984,0.0573081187903881
23.5200266785114,-10.2845125000818,10.4820881225238,-20.9639678146347,-0.15150585770607,0.469526708126068,0.0575256235897541
23.5200266785114,-10.2845125000818,10.4820881225238,-20.9639678146347,-0.1512800604105,0.469687193632126,0.0577434338629246
23.5200266785114,-10.2845125000818,10.4820881225238,-20.9639678146347,-0.151053383946419,0.469846814870834,0.0579615533351898
23.5200266785114,-10.2845125000818,10.4820881225238,-20.9639678146347,-0.150825828313828,0.470005571842194,0.0581799820065498
23.5200266785114,-10.2845125000818,10.4820881225238,-20.9639678146347,-0.150597393512726,0.470163494348526,0.0583987198770046
23.5200266785114,-10.2845125000818,10.4820881225238,-20.9639678146347,-0.150368094444275,0.470320552587509,0.0586177632212639
23.5200266785114,-10.2845125000818,10.4820881225238,-20.9639678146347,-0.150137916207314,0.470476776361465,0.0588371157646179
23.5200266785114,-10.2845125000818,10.4820881225238,-20.9639678146347,-0.149906858801842,0.470632135868073,0.0590567737817764
23.5200266785114,-10.2845125000818,10.4820881225238,-20.9639678146347,-0.149674937129021,0.470786660909653,0.0592767409980297
23.5200266785114,-10.2845125000818,10.4820881225238,-20.9639678146347,-0.14944215118885,0.470940351486206,0.0594970136880875
23.5200266785114,-10.2845125000818,10.4820881225238,-20.9639678146347,-0.14920848608017,0.47109317779541,0.0597175918519497
23.5200266785114,-10.2845125000818,10.4820881225238,-20.9639678146347,-0.14897395670414,0.471245169639587,0.0599384754896164
23.5200266785114,-10.2845125000818,10.4820881225238,-20.9639678146347,-0.14873856306076,0.471396327018738,0.0601596646010876
23.5200266785114,-10.2845125000818,10.4820881225238,-20.9639678146347,-0.148502305150032,0.471546649932861,0.0603811591863632
23.5200266785114,-10.2845125000818,10.4820881225238,-20.9639678146347,-0.148247003555298,0.471645265817642,0.0606073215603828
23.5200266785114,-10.2845125000818,10.4820881225238,-20.9639678146347,-0.147954508662224,0.471641331911087,0.0608425065875053
23.5200266785114,-10.2845125000818,10.4820881225238,-20.9639678146347,-0.14762482047081,0.471534848213196,0.061086717993021
23.5200266785114,-10.2845125000818,10.4820881225238,-20.9639678146347,-0.147257938981056,0.471325814723969,0.0613399520516396
23.5200266785114,-10.2845125000818,10.4820881225238,-20.9639678146347,-0.146837159991264,0.471014946699142,0.0615397207438946
23.5200266785114,-10.2845125000818,10.4820881225238,-20.9639678146347,-0.146345764398575,0.470602989196777,0.0616235323250294
23.5200266785114,-10.2845125000818,10.4820881225238,-20.9639678146347,-0.145783752202988,0.470089912414551,0.0615913905203342
23.5200266785114,-10.2845125000818,10.4820881225238,-20.9639678146347,-0.145151123404503,0.469475746154785,0.0614432916045189
23.5200266785114,-10.2845125000818,10.4820881225238,-20.9639678146347,-0.144447892904282,0.46876049041748,0.0611792355775833
23.5200266785114,-10.2845125000818,10.4820881225238,-20.9639678146347,-0.143663883209229,0.467947036027908,0.060803584754467
23.5200266785114,-10.2845125000818,10.4820881225238,-20.9639678146347,-0.142788916826248,0.467038303613663,0.0603206939995289
23.5200266785114,-10.2845125000818,10.4820881225238,-20.9639678146347,-0.141822993755341,0.466034293174744,0.0597305670380592
23.5200266785114,-10.2845125000818,10.4820881225238,-20.9639678146347,-0.140766113996506,0.464935034513474,0.0590332038700581
23.5200266785114,-10.2845125000818,10.4820881225238,-20.9639678146347,-0.139618292450905,0.46374049782753,0.0582286007702351
23.5200266785114,-10.2845125000818,10.4820881225238,-20.9639678146347,-0.138358443975449,0.462465941905975,0.0572804287075996
23.5200266785114,-10.2845125000818,10.4820881225238,-20.9639678146347,-0.136965498328209,0.461126625537872,0.0561523549258709
23.5200266785114,-10.2845125000818,10.4820881225238,-20.9639678146347,-0.135439470410347,0.459722578525543,0.0548443831503391
23.5200266785114,-10.2845125000818,10.4820881225238,-20.9639678146347,-0.133780345320702,0.458253771066666,0.053356509655714
23.5200266785114,-10.2845125000818,10.4820881225238,-20.9639678146347,-0.131988137960434,0.456720232963562,0.0516887344419956
23.5200266785114,-10.2845125000818,10.4820881225238,-20.9639678146347,-0.130052655935287,0.455150276422501,0.0498425103724003
23.5200266785114,-10.2845125000818,10.4820881225238,-20.9639678146347,-0.127963751554489,0.453572243452072,0.0478192903101444
23.5200266785114,-10.2845125000818,10.4820881225238,-20.9639678146347,-0.125739574432373,0.452037006616592,0.0456147156655788
23.5200266785114,-10.2845125000818,10.4820881225238,-20.9639678146347,-0.123398303985596,0.450595438480377,0.043224424123764
23.5200266785114,-10.2845125000818,10.4820881225238,-20.9639678146347,-0.120939932763577,0.449247539043427,0.0406484156847
23.5200266785114,-10.2845125000818,10.4820881225238,-20.9639678146347,-0.118357196450233,0.447971522808075,0.0378772467374802
23.5200266785114,-10.2845125000818,10.4820881225238,-20.9639678146347,-0.115659542381763,0.446744829416275,0.034963957965374
23.5200266785114,-10.2845125000818,10.4820881225238,-20.9639678146347,-0.112863689661026,0.445566773414612,0.0319710411131382
23.5200266785114,-10.2845125000818,10.4820881225238,-20.9639678146347,-0.10996963083744,0.444437325000763,0.0288984924554825
23.5200266785114,-10.2845125000818,10.4820881225238,-20.9639678146347,-0.106977373361588,0.443356513977051,0.025746313855052
23.5200266785114,-10.2845125000818,10.4820881225238,-20.9639678146347,-0.103923976421356,0.442330121994019,0.0225479286164045
23.5200266785114,-10.2845125000818,10.4820881225238,-20.9639678146347,-0.10085666924715,0.44136106967926,0.0193324014544487
23.5200266785114,-10.2845125000818,10.4820881225238,-20.9639678146347,-0.097785621881485,0.440446466207504,0.0160953737795353
23.5200266785114,-10.2845125000818,10.4820881225238,-20.9639678146347,-0.0947108417749405,0.439586311578751,0.0128368437290192
23.5200266785114,-10.2845125000818,10.4820881225238,-20.9639678146347,-0.0916323289275169,0.438780605792999,0.00955681037157774
23.5200266785114,-10.2845125000818,10.4820881225238,-20.9639678146347,-0.0885864123702049,0.438055485486984,0.00625164154917002
23.5200266785114,-10.2845125000818,10.4820881225238,-20.9639678146347,-0.0856304988265038,0.437421888113022,0.00295403436757624
23.5200266785114,-10.2845125000818,10.4820881225238,-20.9639678146347,-0.0827856585383415,0.436864525079727,-0.000299680745229125
23.5200266785114,-10.2845125000818,10.4820881225238,-20.9639678146347,-0.0800518915057182,0.436383426189423,-0.00350950355641544
23.5200266785114,-10.2845125000818,10.4820881225238,-20.9639678146347,-0.0774292051792145,0.435978561639786,-0.00667543429881334
23.5200266785114,-10.2845125000818,10.4820881225238,-20.9639678146347,-0.0749001577496529,0.435664504766464,-0.00982799101620913
23.5200266785114,-10.2845125000818,10.4820881225238,-20.9639678146347,-0.0724574849009514,0.43542742729187,-0.0129991453140974
23.5200266785114,-10.2845125000818,10.4820881225238,-20.9639678146347,-0.0701113566756248,0.435238987207413,-0.0161903500556946
23.5200266785114,-10.2845125000818,10.4820881225238,-20.9639678146347,-0.0678617805242538,0.435099184513092,-0.0194016061723232
23.5200266785114,-10.2845125000818,10.4820881225238,-20.9639678146347,-0.0657087564468384,0.43500804901123,-0.0226329155266285
23.5200266785114,-10.2845125000818,10.4820881225238,-20.9639678146347,-0.0637045949697495,0.434971362352371,-0.0258268732577562
23.5200266785114,-10.2845125000818,10.4820881225238,-20.9639678146347,-0.0619088895618916,0.435016751289368,-0.0289166308939457
23.5200266785114,-10.2845125000818,10.4820881225238,-20.9639678146347,-0.0603289045393467,0.435166001319885,-0.0318927429616451
23.5200266785114,-10.2845125000818,10.4820881225238,-20.9639678146347,-0.0589646399021149,0.435419142246246,-0.0347552113234997
23.5200266785114,-10.2845125000818,10.4820881225238,-20.9639678146347,-0.0578160956501961,0.435776174068451,-0.0375040359795094
23.5200266785114,-10.2845125000818,10.4820881225238,-20.9639678146347,-0.0569007135927677,0.436271965503693,-0.0401617400348186
23.5200266785114,-10.2845125000818,10.4820881225238,-20.9639678146347,-0.0561988726258278,0.436935573816299,-0.0427842736244202
23.5200266785114,-10.2845125000818,10.4820881225238,-20.9639678146347,-0.0556735210120678,0.437761187553406,-0.045405063778162
23.5200266785114,-10.2845125000818,10.4820881225238,-20.9639678146347,-0.0553246587514877,0.438748806715012,-0.0480241104960442
23.5200266785114,-10.2845125000818,10.4820881225238,-20.9639678146347,-0.0551522858440876,0.439898461103439,-0.0506414137780666
23.5200266785114,-10.2845125000818,10.4820881225238,-20.9639678146347,-0.0551498644053936,0.44116798043251,-0.0532424375414848
23.5200266785114,-10.2845125000818,10.4820881225238,-20.9639678146347,-0.055274523794651,0.442489087581635,-0.0558090209960938
23.5200266785114,-10.2845125000818,10.4820881225238,-20.9639678146347,-0.0554899349808693,0.443835616111755,-0.0583375319838524
23.5200266785114,-10.2845125000818,10.4820881225238,-20.9639678146347,-0.0557960979640484,0.445207536220551,-0.0608279667794704
23.5200266785114,-10.2845125000818,10.4820881225238,-20.9639678146347,-0.0561930164694786,0.446604877710342,-0.0632803291082382
23.5200266785114,-10.2845125000818,10.4820881225238,-20.9639678146347,-0.0566908605396748,0.448062539100647,-0.0656495690345764
23.5200266785114,-10.2845125000818,10.4820881225238,-20.9639678146347,-0.0573172457516193,0.449600845575333,-0.0678601115942001
23.5200266785114,-10.2845125000818,10.4820881225238,-20.9639678146347,-0.0580896101891994,0.451205253601074,-0.069881446659565
23.5200266785114,-10.2845125000818,10.4820881225238,-20.9639678146347,-0.0590079575777054,0.452875792980194,-0.0717135742306709
23.5200266785114,-10.2845125000818,10.4820881225238,-20.9639678146347,-0.0600722879171371,0.45461243391037,-0.073356494307518
23.5200266785114,-10.2845125000818,10.4820881225238,-20.9639678146347,-0.0612891390919685,0.456416666507721,-0.0748240053653717
23.5200266785114,-10.2845125000818,10.4820881225238,-20.9639678146347,-0.0626127347350121,0.458284109830856,-0.076187327504158
23.5200266785114,-10.2845125000818,10.4820881225238,-20.9639678146347,-0.0639907643198967,0.46020895242691,-0.0775038525462151
23.5200266785114,-10.2845125000818,10.4820881225238,-20.9639678146347,-0.0654232278466225,0.462191194295883,-0.0787735879421234
23.5200266785114,-10.2845125000818,10.4820881225238,-20.9639678146347,-0.0669101253151894,0.464230865240097,-0.0799965336918831
23.5200266785114,-10.2845125000818,10.4820881225238,-20.9639678146347,-0.0684587210416794,0.466314852237701,-0.0811305493116379
23.5200266785114,-10.2845125000818,10.4820881225238,-20.9639678146347,-0.0700588524341583,0.468395233154297,-0.0821109563112259
23.5200266785114,-10.2845125000818,10.4820881225238,-20.9639678146347,-0.0716930702328682,0.470437109470367,-0.0829152390360832
23.5200266785114,-10.2845125000818,10.4820881225238,-20.9639678146347,-0.0733613818883896,0.472440481185913,-0.0835433900356293
23.5200266785114,-10.2845125000818,10.4820881225238,-20.9639678146347,-0.0750637874007225,0.474405348300934,-0.0839954167604446
23.5200266785114,-10.2845125000818,10.4820881225238,-20.9639678146347,-0.0768039226531982,0.476341903209686,-0.0842705890536308
23.5200266785114,-10.2845125000818,10.4820881225238,-20.9639678146347,-0.0785919576883316,0.478302448987961,-0.0843827128410339
23.5200266785114,-10.2845125000818,10.4820881225238,-20.9639678146347,-0.0804344341158867,0.480329126119614,-0.0843463242053986
23.5200266785114,-10.2845125000818,10.4820881225238,-20.9639678146347,-0.0823313593864441,0.482421934604645,-0.0841614156961441
23.5200266785114,-10.2845125000818,10.4820881225238,-20.9639678146347,-0.0842827260494232,0.484580904245377,-0.0838279947638512
23.5200266785114,-10.2845125000818,10.4820881225238,-20.9639678146347,-0.0862449407577515,0.486792922019959,-0.0833758488297462
23.5200266785114,-10.2845125000818,10.4820881225238,-20.9639678146347,-0.0881642326712608,0.489010065793991,-0.082879826426506
23.5200266785114,-10.2845125000818,10.4820881225238,-20.9639678146347,-0.0900304391980171,0.491197437047958,-0.0823849737644196
23.5200266785114,-10.2845125000818,10.4820881225238,-20.9639678146347,-0.0918435528874397,0.49335503578186,-0.0818912908434868
23.5200266785114,-10.2845125000818,10.4820881225238,-20.9639678146347,-0.0936035737395287,0.495482891798019,-0.0813987776637077
23.5200266785114,-10.2845125000818,10.4820881225238,-20.9639678146347,-0.0953126847743988,0.497530102729797,-0.0808187872171402
23.5200266785114,-10.2845125000818,10.4820881225238,-20.9639678146347,-0.096966527402401,0.499444395303726,-0.0800488665699959
23.5200266785114,-10.2845125000818,10.4820881225238,-20.9639678146347,-0.0985585674643517,0.501224279403687,-0.0790752097964287
23.5200266785114,-10.2845125000818,10.4820881225238,-20.9639678146347,-0.100088804960251,0.502869784832001,-0.0778978168964386
23.5200266785114,-10.2845125000818,10.4820881225238,-20.9639678146347,-0.101557239890099,0.504380881786346,-0.0765166878700256
23.5200266785114,-10.2845125000818,10.4820881225238,-20.9639678146347,-0.102960959076881,0.505763411521912,-0.0749732404947281
23.5200266785114,-10.2845125000818,10.4820881225238,-20.9639678146347,-0.104289799928665,0.50703626871109,-0.0733510404825211
23.5200266785114,-10.2845125000818,10.4820881225238,-20.9639678146347,-0.105536498129368,0.508212506771088,-0.0716922283172607
23.5200266785114,-10.2845125000818,10.4820881225238,-20.9639678146347,-0.106701046228409,0.509292185306549,-0.0699968039989471
23.5200266785114,-10.2845125000818,10.4820881225238,-20.9639678146347,-0.107783451676369,0.51027524471283,-0.0682647675275803
23.5200266785114,-10.2845125000818,10.4820881225238,-20.9639678146347,-0.108800426125526,0.51120388507843,-0.0664997547864914
23.5200266785114,-10.2845125000818,10.4820881225238,-20.9639678146347,-0.10976505279541,0.51211005449295,-0.0647061243653297
23.5200266785114,-10.2845125000818,10.4820881225238,-20.9639678146347,-0.110673695802689,0.512983560562134,-0.0628846064209938
23.5200266785114,-10.2845125000818,10.4820881225238,-20.9639678146347,-0.111526355147362,0.51382440328598,-0.061035193502903
23.5200266785114,-10.2845125000818,10.4820881225238,-20.9639678146347,-0.11232303828001,0.51463258266449,-0.0591578930616379
23.5200266785114,-10.2845125000818,10.4820881225238,-20.9639678146347,-0.113020874559879,0.5153529047966,-0.0572686865925789
23.5200266785114,-10.2845125000818,10.4820881225238,-20.9639678146347,-0.113620586693287,0.515943229198456,-0.0553537718951702
23.5200266785114,-10.2845125000818,10.4820881225238,-20.9639678146347,-0.114165775477886,0.516416609287262,-0.0533833540976048
23.5200266785114,-10.2845125000818,10.4820881225238,-20.9639678146347,-0.114656440913677,0.516773104667664,-0.0513574369251728
23.5200266785114,-10.2845125000818,10.4820881225238,-20.9639678146347,-0.11509258300066,0.517012655735016,-0.0492760166525841
23.5200266785114,-10.2845125000818,10.4820881225238,-20.9639678146347,-0.11545967310667,0.517153441905975,-0.0471405498683453
23.5200266785114,-10.2845125000818,10.4820881225238,-20.9639678146347,-0.11574099957943,0.517264485359192,-0.045041136443615
23.5200266785114,-10.2845125000818,10.4820881225238,-20.9639678146347,-0.115934379398823,0.517396688461304,-0.0430664271116257
23.5200266785114,-10.2845125000818,10.4820881225238,-20.9639678146347,-0.11603982001543,0.517549991607666,-0.0412164181470871
23.5200266785114,-10.2845125000818,10.4820881225238,-20.9639678146347,-0.116057321429253,0.517724454402924,-0.0394911132752895
23.5200266785114,-10.2845125000818,10.4820881225238,-20.9639678146347,-0.115997053682804,0.517902612686157,-0.0379471853375435
23.5200266785114,-10.2845125000818,10.4820881225238,-20.9639678146347,-0.115872099995613,0.518061220645905,-0.0365998968482018
23.5200266785114,-10.2845125000818,10.4820881225238,-20.9639678146347,-0.115685366094112,0.518194496631622,-0.035407830029726
23.5200266785114,-10.2845125000818,10.4820881225238,-20.9639678146347,-0.115436851978302,0.518302381038666,-0.0343709848821163
23.5200266785114,-10.2845125000818,10.4820881225238,-20.9639678146347,-0.115126565098763,0.51838493347168,-0.0334893614053726
23.5200266785114,-10.2845125000818,10.4820881225238,-20.9639678146347,-0.114690557122231,0.518408715724945,-0.0327796712517738
23.5200266785114,-10.2845125000818,10.4820881225238,-20.9639678146347,-0.114048175513744,0.518298149108887,-0.0322549976408482
23.5200266785114,-10.2845125000818,10.4820881225238,-20.9639678146347,-0.113182716071606,0.518011093139648,-0.0319117046892643
23.5200266785114,-10.2845125000818,10.4820881225238,-20.9639678146347,-0.112094171345234,0.51754754781723,-0.0317497923970222
23.5200266785114,-10.2845125000818,10.4820881225238,-20.9639678146347,-0.110782541334629,0.516907513141632,-0.031769260764122
23.5200266785114,-10.2845125000818,10.4820881225238,-20.9639678146347,-0.109292887151241,0.516112089157104,-0.0320318751037121
23.5200266785114,-10.2845125000818,10.4820881225238,-20.9639678146347,-0.107713125646114,0.515237510204315,-0.0325834080576897
23.5200266785114,-10.2845125000818,10.4820881225238,-20.9639678146347,-0.106086127460003,0.514339089393616,-0.0334078781306744
23.5200266785114,-10.2845125000818,10.4820881225238,-20.9639678146347,-0.104411892592907,0.513416767120361,-0.0345052853226662
23.5200266785114,-10.2845125000818,10.4820881225238,-20.9639678146347,-0.102690421044827,0.512470543384552,-0.0358756296336651
23.5200266785114,-10.2845125000818,10.4820881225238,-20.9639678146347,-0.10094279050827,0.511501908302307,-0.0374862141907215
23.5200266785114,-10.2845125000818,10.4820881225238,-20.9639678146347,-0.0992045998573303,0.510494112968445,-0.0393028855323792
23.5200266785114,-10.2845125000818,10.4820881225238,-20.9639678146347,-0.0974903926253319,0.509428977966309,-0.0413241907954216
23.5200266785114,-10.2845125000818,10.4820881225238,-20.9639678146347,-0.0958001613616943,0.508306562900543,-0.0435501337051392
23.5200266785114,-10.2845125000818,10.4820881225238,-20.9639678146347,-0.0941339135169983,0.507126867771149,-0.0459807142615318
23.5200266785114,-10.2845125000818,10.4820881225238,-20.9639678146347,-0.0924625769257545,0.505865156650543,-0.0485897697508335
23.5200266785114,-10.2845125000818,10.4820881225238,-20.9639678146347,-0.0907469242811203,0.504514157772064,-0.0512944683432579
23.5200266785114,-10.2845125000818,10.4820881225238,-20.9639678146347,-0.0889767780900002,0.503091335296631,-0.0540381371974945
23.5200266785114,-10.2845125000818,10.4820881225238,-20.9639678146347,-0.0871521383523941,0.501596689224243,-0.056820772588253
23.5200266785114,-10.2845125000818,10.4820881225238,-20.9639678146347,-0.0852730125188828,0.500030219554901,-0.0596423745155334
23.5200266785114,-10.2845125000818,10.4820881225238,-20.9639678146347,-0.0833597406744957,0.498471826314926,-0.0624818727374077
23.5200266785114,-10.2845125000818,10.4820881225238,-20.9639678146347,-0.0814966112375259,0.497034907341003,-0.0653014853596687
23.5200266785114,-10.2845125000818,10.4820881225238,-20.9639678146347,-0.0797475725412369,0.49575287103653,-0.0680844932794571
23.5200266785114,-10.2845125000818,10.4820881225238,-20.9639678146347,-0.0781126245856285,0.494625717401505,-0.0708309039473534
23.5200266785114,-10.2845125000818,10.4820881225238,-20.9639678146347,-0.0765917673707008,0.493653446435928,-0.0735407173633575
23.5200266785114,-10.2845125000818,10.4820881225238,-20.9639678146347,-0.0752242431044579,0.492837488651276,-0.0761935859918594
23.5200266785114,-10.2845125000818,10.4820881225238,-20.9639678146347,-0.0740042328834534,0.492158263921738,-0.0787074044346809
23.5200266785114,-10.2845125000818,10.4820881225238,-20.9639678146347,-0.0728866904973984,0.491594702005386,-0.0810204073786736
23.5200266785114,-10.2845125000818,10.4820881225238,-20.9639678146347,-0.0718716159462929,0.491146773099899,-0.0831325948238373
23.5200266785114,-10.2845125000818,10.4820881225238,-20.9639678146347,-0.0709590166807175,0.490814507007599,-0.0850439667701721
23.5200266785114,-10.2845125000818,10.4820881225238,-20.9639678146347,-0.0701997503638268,0.49058336019516,-0.0868075639009476
23.5200266785114,-10.2845125000818,10.4820881225238,-20.9639678146347,-0.0696236118674278,0.490437358617783,-0.0885091349482536
23.5200266785114,-10.2845125000818,10.4820881225238,-20.9639678146347,-0.0692095309495926,0.49037504196167,-0.0901813730597496
23.5200266785114,-10.2845125000818,10.4820881225238,-20.9639678146347,-0.068957507610321,0.490396410226822,-0.0918242856860161
23.5200266785114,-10.2845125000818,10.4820881225238,-20.9639678146347,-0.0688675418496132,0.490501463413239,-0.0934378653764725
23.5200266785114,-10.2845125000818,10.4820881225238,-20.9639678146347,-0.0689258277416229,0.490710556507111,-0.0949806943535805
23.5200266785114,-10.2845125000818,10.4820881225238,-20.9639678146347,-0.0691476240754128,0.491068750619888,-0.0964375212788582
23.5200266785114,-10.2845125000818,10.4820881225238,-20.9639678146347,-0.0695620030164719,0.491600751876831,-0.0978344976902008
23.5200266785114,-10.2845125000818,10.4820881225238,-20.9639678146347,-0.0701689645648003,0.492306530475616,-0.0991716235876083
23.5200266785114,-10.2845125000818,10.4820881225238,-20.9639678146347,-0.0709685012698174,0.493186116218567,-0.100448906421661
23.5200266785114,-10.2845125000818,10.4820881225238,-20.9639678146347,-0.0719707980751991,0.49420753121376,-0.101720109581947
23.5200266785114,-10.2845125000818,10.4820881225238,-20.9639678146347,-0.0731656774878502,0.495258867740631,-0.103060081601143
23.5200266785114,-10.2845125000818,10.4820881225238,-20.9639678146347,-0.0745327994227409,0.496260225772858,-0.104489885270596
23.5200266785114,-10.2845125000818,10.4820881225238,-20.9639678146347,-0.0760721564292908,0.497211575508118,-0.106009528040886
23.5200266785114,-10.2845125000818,10.4820881225238,-20.9639678146347,-0.0777837559580803,0.498112946748734,-0.107619009912014
23.5200266785114,-10.2845125000818,10.4820881225238,-20.9639678146347,-0.0796799510717392,0.498954147100449,-0.109261654317379
23.5200266785114,-10.2845125000818,10.4820881225238,-20.9639678146347,-0.0817338600754738,0.499723553657532,-0.11090113222599
23.5200266785114,-10.2845125000818,10.4820881225238,-20.9639678146347,-0.0839062407612801,0.500419735908508,-0.112557783722878
23.5200266785114,-10.2845125000818,10.4820881225238,-20.9639678146347,-0.086197093129158,0.501042664051056,-0.114231608808041
23.8068334743138,-11.5771541756538,10.2828877812306,-21.587692255159,-0.0886064246296883,0.501592338085175,-0.11592261493206
24.1299564202653,-12.9277170868788,10.0980033277429,-22.4442934383281,-0.0911233350634575,0.502108752727509,-0.117643147706985
24.4401871329138,-14.0853856480374,9.94559149781393,-23.3557363587083,-0.0936860591173172,0.502646386623383,-0.119352519512177
24.6898606651888,-14.839647169759,9.84311069120649,-24.1454573745469,-0.0962437391281128,0.503219783306122,-0.120997689664364
24.8365779117911,-15.0622582895533,9.79230674789684,-24.6707342087607,-0.0987963750958443,0.503828942775726,-0.122578658163548
24.8593662960096,-14.7333322124116,9.79038632392293,-24.8535845862423,-0.101343967020512,0.504473865032196,-0.124095425009727
24.75713633334,-13.9420948627079,9.82216061149117,-24.6917345813025,-0.103889420628548,0.5051349401474,-0.125498577952385
24.5504066486163,-12.8669980891903,9.8665049468886,-24.2515293199331,-0.106449455022812,0.505772233009338,-0.126780122518539
24.2804868626332,-11.7360973053439,9.9024692503999,-23.653754384333,-0.10903786867857,0.506365358829498,-0.12798148393631
23.9979472144734,-10.7782796917451,9.90718301833584,-23.0458136632987,-0.111654669046402,0.50691431760788,-0.129102647304535
23.755718492979,-10.1748704743678,9.86720328287911,-22.5657478222003,-0.114299856126308,0.507419109344482,-0.130143627524376
23.5974708687044,-10.024245015594,9.77432459614119,-22.3206988891014,-0.116972707211971,0.507852137088776,-0.131053552031517
23.5518941002673,-10.3248910116205,9.63360989405329,-22.3635021961929,-0.119662314653397,0.508217751979828,-0.131727799773216
23.6285211770818,-10.9814577076715,9.45850214443273,-22.6862658837299,-0.12235851585865,0.508547961711884,-0.132112592458725
23.8180006904847,-11.8297089107465,9.26628516304467,-23.227593958103,-0.125061303377151,0.508842706680298,-0.132207930088043
24.0976350466326,-12.6782625745821,9.07755986160916,-23.8922490610336,-0.127770692110062,0.509102046489716,-0.132013812661171
24.4357384045206,-13.3486668504301,8.91065755987711,-24.5686750734143,-0.130480125546455,0.509324491024017,-0.131558582186699
24.7978104215069,-13.715098061885,8.7762278817038,-25.1580231079307,-0.1331707239151,0.50951874256134,-0.130927249789238
25.1552521293493,-13.7257598036958,8.68247627497774,-25.5922091542404,-0.135830134153366,0.509695053100586,-0.13017649948597
25.4857290957059,-13.4077979291254,8.62364146777722,-25.8395320130286,-0.138458356261253,0.509853363037109,-0.129306331276894
25.7731714241359,-12.8526312030623,8.59239093220187,-25.909221147387,-0.141055390238762,0.509993672370911,-0.128316730260849
26.0103158846094,-12.1900152917995,8.57842421239165,-25.8397995336979,-0.143648117780685,0.510122537612915,-0.127213522791862
26.1889005529676,-11.5540915426588,8.56812375653162,-25.6853063471645,-0.146274343132973,0.510206580162048,-0.12599016726017
26.3015714088051,-11.0556362092063,8.55712496468108,-25.4969717959617,-0.148944944143295,0.510205745697021,-0.124634310603142
26.3418823354706,-10.759753970159,8.54315824487086,-25.3115799721216,-0.151659935712814,0.510120093822479,-0.123145952820778
26.2984845360424,-10.680811711645,8.53058819704167,-25.1446470744646,-0.15441931784153,0.509949624538422,-0.121525101363659
26.1638424093647,-10.7893951246968,8.527620269082,-24.9910902102738,-0.157172217965126,0.509658753871918,-0.119779013097286
25.9345059211732,-11.0269024369502,8.54490408484714,-24.836730784075,-0.159864872694016,0.509231448173523,-0.117964364588261
25.616558026618,-11.3281533544979,8.59535886016154,-24.6653837953742,-0.162494376301765,0.508687317371368,-0.116130568087101
25.2257054606385,-11.6408977809481,8.68561878693504,-24.4766479631676,-0.165060728788376,0.508026421070099,-0.114277631044388
24.7910919337294,-11.9351921010023,8.81865179312733,-24.2876446102915,-0.167563930153847,0.507248759269714,-0.112405546009541
24.3488520152889,-12.2033235652654,8.99218828676923,-24.1366291924593,-0.170001089572906,0.50636225938797,-0.11050195991993
23.9399321646102,-12.4549709180764,9.197673651977,-24.0702840664674,-0.17237001657486,0.505402565002441,-0.10860538482666
23.603463033479,-12.7032155873308,9.42236325692381,-24.1335527047621,-0.174671426415443,0.504397332668304,-0.106766685843468
23.3670448960084,-12.9508553350639,9.65124287781368,-24.3469004385464,-0.176905333995819,0.503346502780914,-0.104985862970352
23.247564762018,-13.1832964295774,9.86912370685301,-24.6998939617168,-0.179071739315987,0.502250134944916,-0.103262916207314
23.2457489545105,-13.366587650495,10.0613406882411,-25.1350163303691,-0.181129232048988,0.501078367233276,-0.101624004542828
23.3448012540421,-13.4564941115804,10.2120066781938,-25.5606417152604,-0.183042928576469,0.49980291724205,-0.10006695240736
23.5184832421301,-13.4154350633303,10.3132653968178,-25.8613349475783,-0.184819370508194,0.498425215482712,-0.0985634177923203
23.73038797825,-13.2254897056797,10.3551655562484,-25.9262087098889,-0.186458557844162,0.496945261955261,-0.0971134006977081
