EOG_left_h,EOG_right_h,EOG_left_v,EOG_right_v,head_horizontal,head_frontal,head_sagittal
2.92584620415934,-2.29125568736746,-0.141388578464281,-13.6333186565918,0.0,0.0,0.0
2.92584620415934,-2.29125568736746,-0.141388578464281,-13.6333186565918,-9.4371207524091e-05,-6.24451495241374e-05,0.000433485809480771
2.92584620415934,-2.29125568736746,-0.141388578464281,-13.6333186565918,-0.000189121608855203,-0.000125208636745811,0.000866003334522247
2.92584620415934,-2.29125568736746,-0.141388578464281,-13.6333186565918,-0.000284251058474183,-0.00018829049076885,0.00129755353555083
2.92584620415934,-2.29125568736746,-0.141388578464281,-13.6333186565918,-0.000379759469069541,-0.000251690682489425,0.00172813748940825
2.92584620415934,-2.29125568736746,-0.141388578464281,-13.6333186565918,-0.000475646724225953,-0.000315409241011366,0.00215775612741709
2.92584620415934,-2.29125568736746,-0.141388578464281,-13.6333186565918,-0.000571912678424269,-0.000379446137230843,0.00258641038089991
2.92584620415934,-2.29125568736746,-0.141388578464281,-13.6333186565918,-0.000668557244352996,-0.000443801400251687,0.00301410118117929
2.92584620415934,-2.29125568736746,-0.141388578464281,-13.6333186565918,-0.000765580276492983,-0.000508475000970066,0.00344082969240844
2.92584620415934,-2.29125568736746,-0.141388578464281,-13.6333186565918,-0.000862981658428907,-0.000573466997593641,0.00386659684590995
2.92584620415934,-2.29125568736746,-0.141388578464281,-13.6333186565918,-0.000960761273745447,-0.000638777331914753,0.00429140357300639
2.92584620415934,-2.29125568736746,-0.141388578464281,-13.6333186565918,-0.00105891900602728,-0.0007044060039334,0.00471525127068162
2.92584620415934,-2.29125568736746,-0.141388578464281,-13.6333186565918,-0.00115745479706675,-0.000770353071857244,0.00513814017176628
2.92584620415934,-2.29125568736746,-0.141388578464281,-13.6333186565918,-0.00125636847224087,-0.000836618477478623,0.00556007213890553
2.92584620415934,-2.29125568736746,-0.141388578464281,-13.6333186565918,-0.00135565991513431,-0.0009032022790052,0.00598104763776064
2.92584620415934,-2.29125568736746,-0.141388578464281,-13.6333186565918,-0.00145532900933176,-0.000970104418229312,0.0064010675996542
2.92584620415934,-2.29125568736746,-0.141388578464281,-13.6333186565918,-0.0015553756384179,-0.00103732489515096,0.00682013295590878
2.92584620415934,-2.29125568736746,-0.141388578464281,-13.6333186565918,-0.00165579956956208,-0.00110486382618546,0.00723824510350823
2.92584620415934,-2.29125568736746,-0.141388578464281,-13.6333186565918,-0.0017566008027643,-0.00117272103670985,0.00765540450811386
2.92584620415934,-2.29125568736746,-0.141388578464281,-13.6333186565918,-0.00185777922160923,-0.00124089664313942,0.00807161256670952
2.92584620415934,-2.29125568736746,-0.141388578464281,-13.6333186565918,-0.00195933482609689,-0.0013093906454742,0.00848687067627907
2.92584620415934,-2.29125568736746,-0.141388578464281,-13.6333186565918,-0.00206126715056598,-0.00137820292729884,0.00890117883682251
2.92584620415934,-2.29125568736746,-0.141388578464281,-13.6333186565918,-0.00216357642784715,-0.00144733360502869,0.00931453891098499
2.92584620415934,-2.29125568736746,-0.141388578464281,-13.6333186565918,-0.00226626242510974,-0.00151678267866373,0.00972695089876652
2.92584620415934,-2.29125568736746,-0.141388578464281,-13.6333186565918,-0.00236932490952313,-0.00158655014820397,0.0101384166628122
2.92584620415934,-2.29125568736746,-0.141388578464281,-13.6333186565918,-0.0024727638810873,-0.00165663589723408,0.0105489371344447
2.92584620415934,-2.29125568736746,-0.141388578464281,-13.6333186565918,-0.00257657910697162,-0.00172704004216939,0.010958512313664
2.92584620415934,-2.29125568736746,-0.141388578464281,-13.6333186565918,-0.00268077058717608,-0.0017977625830099,0.0113671440631151
2.92584620415934,-2.29125568736746,-0.141388578464281,-13.6333186565918,-0.00278533832170069,-0.0018688035197556,0.0117748333141208
2.92584620415934,-2.29125568736746,-0.141388578464281,-13.6333186565918,-0.00289028184488416,-0.00194016273599118,0.0121815809980035
2.92584620415934,-2.29125568736746,-0.141388578464281,-13.6333186565918,-0.00299560138955712,-0.00201184023171663,0.0125873880460858
2.92584620415934,-2.29125568736746,-0.141388578464281,-13.6333186565918,-0.00310129672288895,-0.00208383612334728,0.0129922553896904
2.92584620415934,-2.29125568736746,-0.141388578464281,-13.6333186565918,-0.00320736761204898,-0.00215615052729845,0.0133961839601398
2.92584620415934,-2.29125568736746,-0.141388578464281,-13.6333186565918,-0.00331381405703723,-0.00222878321073949,0.0137991746887565
2.92584620415934,-2.29125568736746,-0.141388578464281,-13.6333186565918,-0.00342063582502306,-0.00230173417367041,0.0142012294381857
2.92584620415934,-2.29125568736746,-0.141388578464281,-13.6333186565918,-0.00352783291600645,-0.00237500364892185,0.0146023482084274
2.92584620415934,-2.29125568736746,-0.141388578464281,-13.6333186565918,-0.00363540509715676,-0.00244859140366316,0.0150025319308043
2.92584620415934,-2.29125568736746,-0.141388578464281,-13.6333186565918,-0.00374335236847401,-0.00252249743789434,0.0154017815366387
2.92584620415934,-2.29125568736746,-0.141388578464281,-13.6333186565918,-0.00385167449712753,-0.00259672198444605,0.0158000979572535
2.92584620415934,-2.29125568736746,-0.141388578464281,-13.6333186565918,-0.00396037148311734,-0.00267126481048763,0.0161974839866161
2.92584620415934,-2.29125568736746,-0.141388578464281,-13.6333186565918,-0.00406944286078215,-0.00274612591601908,0.0165939386934042
2.92584620415934,-2.29125568736746,-0.141388578464281,-13.6333186565918,-0.00417888909578323,-0.00282130553387105,0.0169894639402628
2.92584620415934,-2.29125568736746,-0.141388578464281,-13.6333186565918,-0.00428870972245932,-0.0028968034312129,0.0173840597271919
2.92584620415934,-2.29125568736746,-0.141388578464281,-13.6333186565918,-0.00439890474081039,-0.00297261960804462,0.0177777279168367
2.92584620415934,-2.29125568736746,-0.141388578464281,-13.6333186565918,-0.00450947368517518,-0.00304875406436622,0.0181704685091972
2.92584620415934,-2.29125568736746,-0.141388578464281,-13.6333186565918,-0.00462041655555367,-0.00312520703300834,0.0185622833669186
2.92584620415934,-2.29125568736746,-0.141388578464281,-13.6333186565918,-0.00473173335194588,-0.00320197828114033,0.0189531724900007
2.92584620415934,-2.29125568736746,-0.141388578464281,-13.6333186565918,-0.00484342407435179,-0.00327906780876219,0.0193431377410889
2.92584620415934,-2.29125568736746,-0.141388578464281,-13.6333186565918,-0.00495548872277141,-0.00335647561587393,0.0197321809828281
2.92584620415934,-2.29125568736746,-0.141388578464281,-13.6333186565918,-0.00506792683154345,-0.00343420193530619,0.0201203022152185
2.92584620415934,-2.29125568736746,-0.141388578464281,-13.6333186565918,-0.00518073840066791,-0.00351224653422832,0.0205075014382601
2.92584620415934,-2.29125568736746,-0.141388578464281,-13.6333186565918,-0.00529392343014479,-0.00359060941264033,0.0208937805145979
2.92584620415934,-2.29125568736746,-0.141388578464281,-13.6333186565918,-0.0054074814543128,-0.00366929057054222,0.0212791413068771
2.92584620415934,-2.29125568736746,-0.141388578464281,-13.6333186565918,-0.00552141293883324,-0.00374829000793397,0.0216635838150978
2.92584620415934,-2.29125568736746,-0.141388578464281,-13.6333186565918,-0.00563571741804481,-0.00382760795764625,0.0220471080392599
2.92584620415934,-2.29125568736746,-0.141388578464281,-13.6333186565918,-0.00575039442628622,-0.0039072441868484,0.0224297158420086
2.92584620415934,-2.29125568736746,-0.141388578464281,-13.6333186565918,-0.00586544442921877,-0.00398719869554043,0.022811409085989
2.92584620415934,-2.29125568736746,-0.141388578464281,-13.6333186565918,-0.00598086696118116,-0.00406747171655297,0.0231921877712011
2.92584620415934,-2.29125568736746,-0.141388578464281,-13.6333186565918,-0.0060966620221734,-0.00414806278422475,0.023572051897645
2.92584620415934,-2.29125568736746,-0.141388578464281,-13.6333186565918,-0.00621282961219549,-0.00422897236421704,0.0239510051906109
2.92584620415934,-2.29125568736746,-0.141388578464281,-13.6333186565918,-0.00632936926558614,-0.00431019999086857,0.0243290457874537
2.92584620415934,-2.29125568736746,-0.141388578464281,-13.6333186565918,-0.00644628098234534,-0.00439174612984061,0.0247061755508184
2.92584620415934,-2.29125568736746,-0.141388578464281,-13.6333186565918,-0.00656356476247311,-0.00447361031547189,0.0250823963433504
2.92584620415934,-2.29125568736746,-0.141388578464281,-13.6333186565918,-0.00668122060596943,-0.00455579301342368,0.0254577081650496
2.92584620415934,-2.29125568736746,-0.141388578464281,-13.6333186565918,-0.00679924804717302,-0.00463829375803471,0.025832112878561
2.92584620415934,-2.29125568736746,-0.141388578464281,-13.6333186565918,-0.00691764708608389,-0.00472111301496625,0.0262056104838848
2.92584620415934,-2.29125568736746,-0.141388578464281,-13.6333186565918,-0.00703641772270203,-0.00480425031855702,0.0265782028436661
2.92584620415934,-2.29125568736746,-0.141388578464281,-13.6333186565918,-0.00715555995702744,-0.00488770613446832,0.0269498899579048
2.92584620415934,-2.29125568736746,-0.141388578464281,-13.6333186565918,-0.00727507332339883,-0.00497147999703884,0.0273206736892462
2.92584620415934,-2.29125568736746,-0.141388578464281,-13.6333186565918,-0.00739495782181621,-0.00505557237192988,0.0276905540376902
2.92584620415934,-2.29125568736746,-0.141388578464281,-13.6333186565918,-0.00751521345227957,-0.00513998279348016,0.0280595328658819
2.92584620415934,-2.29125568736746,-0.141388578464281,-13.6333186565918,-0.00763584021478891,-0.00522471172735095,0.0284276101738214
2.92584620415934,-2.29125568736746,-0.141388578464281,-13.6333186565918,-0.00775683764368296,-0.00530975870788097,0.0287947878241539
2.92584620415934,-2.29125568736746,-0.141388578464281,-13.6333186565918,-0.0078782057389617,-0.00539512420073152,0.0291610676795244
2.92584620415934,-2.29125568736746,-0.141388578464281,-13.6333186565918,-0.00799994450062513,-0.00548080774024129,0.029526449739933
2.92584620415934,-2.29125568736746,-0.141388578464281,-13.6333186565918,-0.00812205392867327,-0.00556680932641029,0.0298909340053797
2.92584620415934,-2.29125568736746,-0.141388578464281,-13.6333186565918,-0.00824453309178352,-0.00565312942489982,0.0302545223385096
2.92584620415934,-2.29125568736746,-0.141388578464281,-13.6333186565918,-0.00836738292127848,-0.00573976757004857,0.0306172147393227
2.92584620415934,-2.29125568736746,-0.141388578464281,-13.6333186565918,-0.00849060248583555,-0.00582672422751784,0.0309790130704641
2.92584620415934,-2.29125568736746,-0.141388578464281,-13.6333186565918,-0.00861419271677732,-0.00591399893164635,0.031339917331934
2.92584620415934,-2.29125568736746,-0.141388578464281,-13.6333186565918,-0.00873815268278122,-0.00600159168243408,0.0316999293863773
2.92584620415934,-2.29125568736746,-0.141388578464281,-13.6333186565918,-0.00886248238384724,-0.00608950294554234,0.0320590510964394
2.92584620415934,-2.29125568736746,-0.141388578464281,-13.6333186565918,-0.00898718181997538,-0.00617773225530982,0.0324172824621201
2.92584620415934,-2.29125568736746,-0.141388578464281,-13.6333186565918,-0.00911225005984306,-0.00626628007739782,0.0327746234834194
2.92584620415934,-2.29125568736746,-0.141388578464281,-13.6333186565918,-0.00923768803477287,-0.00635514594614506,0.0331310778856277
2.92584620415934,-2.29125568736746,-0.141388578464281,-13.6333186565918,-0.00936349481344223,-0.00644432986155152,0.0334866419434547
2.92584620415934,-2.29125568736746,-0.141388578464281,-13.6333186565918,-0.00948967132717371,-0.00653383182361722,0.0338413193821907
2.92584620415934,-2.29125568736746,-0.141388578464281,-13.6333186565918,-0.00961621664464474,-0.00662365229800344,0.0341951139271259
2.92584620415934,-2.29125568736746,-0.141388578464281,-13.6333186565918,-0.00974313076585531,-0.00671379081904888,0.0345480218529701
2.92584620415934,-2.29125568736746,-0.141388578464281,-13.6333186565918,-0.00987041369080544,-0.00680424738675356,0.0349000468850136
2.92584620415934,-2.29125568736746,-0.141388578464281,-13.6333186565918,-0.00999806541949511,-0.00689502246677876,0.0352511890232563
2.92584620415934,-2.29125568736746,-0.141388578464281,-13.6333186565918,-0.0101260859519243,-0.00698611559346318,0.0356014482676983
2.92584620415934,-2.29125568736746,-0.141388578464281,-13.6333186565918,-0.0102544743567705,-0.00707752676680684,0.0359508283436298
2.92584620415934,-2.29125568736746,-0.141388578464281,-13.6333186565918,-0.0103832315653563,-0.00716925598680973,0.0362993292510509
2.92584620415934,-2.29125568736746,-0.141388578464281,-13.6333186565918,-0.010512356646359,-0.00726130325347185,0.0366469509899616
2.92584620415934,-2.29125568736746,-0.141388578464281,-13.6333186565918,-0.0106418495997787,-0.00735366903245449,0.0369936935603619
2.92584620415934,-2.29125568736746,-0.141388578464281,-13.6333186565918,-0.0107717104256153,-0.00744635285809636,0.0373395569622517
2.92584620415934,-2.29125568736746,-0.141388578464281,-13.6333186565918,-0.0109019391238689,-0.00753935473039746,0.0376845449209213
2.92584620415934,-2.29125568736746,-0.141388578464281,-13.6333186565918,-0.0110325356945395,-0.0076326746493578,0.0380286574363709
2.92584620415934,-2.29125568736746,-0.141388578464281,-13.6333186565918,-0.0111635001376271,-0.00772631261497736,0.0383718982338905
2.92584620415934,-2.29125568736746,-0.141388578464281,-13.6333186565918,-0.0112948315218091,-0.00782026909291744,0.0387142635881901
2.92584620415934,-2.29125568736746,-0.141388578464281,-13.6333186565918,-0.0114265298470855,-0.00791454315185547,0.0390557572245598
2.92584620415934,-2.29125568736746,-0.141388578464281,-13.6333186565918,-0.0115585960447788,-0.00800913572311401,0.0393963791429996
2.92584620415934,-2.29125568736746,-0.141388578464281,-13.6333186565918,-0.0116910291835666,-0.0081040458753705,0.0397361293435097
2.92584620415934,-2.29125568736746,-0.141388578464281,-13.6333186565918,-0.0118238292634487,-0.00819927453994751,0.0400750115513802
2.92584620415934,-2.29125568736746,-0.141388578464281,-13.6333186565918,-0.0119569962844253,-0.00829482078552246,0.0404130257666111
2.92584620415934,-2.29125568736746,-0.141388578464281,-13.6333186565918,-0.0120905302464962,-0.00839068554341793,0.0407501719892025
2.92584620415934,-2.29125568736746,-0.141388578464281,-13.6333186565918,-0.012224430218339,-0.00848686788231134,0.0410864502191544
2.92584620415934,-2.29125568736746,-0.141388578464281,-13.6333186565918,-0.0123586971312761,-0.00858336873352528,0.041421864181757
2.92584620415934,-2.29125568736746,-0.141388578464281,-13.6333186565918,-0.0124933300539851,-0.00868018716573715,0.04175641015172
2.92584620415934,-2.29125568736746,-0.141388578464281,-13.6333186565918,-0.0126283289864659,-0.00877732411026955,0.0420900955796242
2.92584620415934,-2.29125568736746,-0.141388578464281,-13.6333186565918,-0.0127636939287186,-0.00887477863579988,0.0424229167401791
2.92584620415934,-2.29125568736746,-0.141388578464281,-13.6333186565918,-0.012899424880743,-0.00897255167365074,0.0427548736333847
2.92584620415934,-2.29125568736746,-0.141388578464281,-13.6333186565918,-0.0130355218425393,-0.00907064229249954,0.0430859699845314
2.92584620415934,-2.29125568736746,-0.141388578464281,-13.6333186565918,-0.0131719848141074,-0.00916905142366886,0.0434162057936192
2.92584620415934,-2.29125568736746,-0.141388578464281,-13.6333186565918,-0.0133088128641248,-0.00926777813583612,0.0437455847859383
2.92584620415934,-2.29125568736746,-0.141388578464281,-13.6333186565918,-0.013446006923914,-0.00936682336032391,0.0440741032361984
2.92584620415934,-2.29125568736746,-0.141388578464281,-13.6333186565918,-0.0135835660621524,-0.00946618616580963,0.0444017648696899
2.92584620415934,-2.29125568736746,-0.141388578464281,-13.6333186565918,-0.0137214902788401,-0.00956586748361588,0.0447285696864128
2.92584620415934,-2.29125568736746,-0.141388578464281,-13.6333186565918,-0.013859779573977,-0.00966586638242006,0.0450545214116573
2.92584620415934,-2.29125568736746,-0.141388578464281,-13.6333186565918,-0.0139984339475632,-0.00976618286222219,0.0453796163201332
2.92584620415934,-2.29125568736746,-0.141388578464281,-13.6333186565918,-0.0141374533995986,-0.00986681785434484,0.0457038581371307
2.92584620415934,-2.29125568736746,-0.141388578464281,-13.6333186565918,-0.0142768379300833,-0.00996777042746544,0.0460272468626499
2.92584620415934,-2.29125568736746,-0.141388578464281,-13.6333186565918,-0.0144165866076946,-0.010069040581584,0.0463497824966908
2.92584620415934,-2.29125568736746,-0.141388578464281,-13.6333186565918,-0.0145567003637552,-0.010170629248023,0.0466714687645435
2.92584620415934,-2.29125568736746,-0.141388578464281,-13.6333186565918,-0.0146971782669425,-0.01027253549546,0.0469923056662083
2.92584620415934,-2.29125568736746,-0.141388578464281,-13.6333186565918,-0.0148380203172565,-0.0103747602552176,0.047312293201685
2.92584620415934,-2.29125568736746,-0.141388578464281,-13.6333186565918,-0.0149792265146971,-0.010477302595973,0.0476314313709736
2.92584620415934,-2.29125568736746,-0.141388578464281,-13.6333186565918,-0.0151207968592644,-0.0105801625177264,0.0479497238993645
2.92584620415934,-2.29125568736746,-0.141388578464281,-13.6333186565918,-0.0152627313509583,-0.0106833409518003,0.0482671707868576
2.92584620415934,-2.29125568736746,-0.141388578464281,-13.6333186565918,-0.0154050290584564,-0.0107868369668722,0.048583772033453
2.92584620415934,-2.29125568736746,-0.141388578464281,-13.6333186565918,-0.0155476909130812,-0.010890650562942,0.0488995276391506
2.92584620415934,-2.29125568736746,-0.141388578464281,-13.6333186565918,-0.01569071598351,-0.0109947817400098,0.0492144413292408
2.92584620415934,-2.29125568736746,-0.141388578464281,-13.6333186565918,-0.015834104269743,-0.0110992314293981,0.0495285093784332
2.92584620415934,-2.29125568736746,-0.141388578464281,-13.6333186565918,-0.01597785577178,-0.0112039986997843,0.0498417355120182
2.92584620415934,-2.29125568736746,-0.141388578464281,-13.6333186565918,-0.0161219704896212,-0.0113090835511684,0.050154123455286
2.92584620415934,-2.29125568736746,-0.141388578464281,-13.6333186565918,-0.0162664484232664,-0.0114144869148731,0.0504656694829464
2.92584620415934,-2.29125568736746,-0.141388578464281,-13.6333186565918,-0.0164112895727158,-0.0115202078595757,0.0507763773202896
2.92584620415934,-2.29125568736746,-0.141388578464281,-13.6333186565918,-0.0165564939379692,-0.0116262463852763,0.0510862469673157
2.92584620415934,-2.29125568736746,-0.141388578464281,-13.6333186565918,-0.0167020596563816,-0.0117326024919748,0.0513952784240246
2.92584620415934,-2.29125568736746,-0.141388578464281,-13.6333186565918,-0.0168479885905981,-0.0118392761796713,0.0517034754157066
2.92584620415934,-2.29125568736746,-0.141388578464281,-13.6333186565918,-0.0169942807406187,-0.0119462683796883,0.0520108379423618
2.92584620415934,-2.29125568736746,-0.141388578464281,-13.6333186565918,-0.0171409342437983,-0.0120535781607032,0.0523173660039902
2.92584620415934,-2.29125568736746,-0.141388578464281,-13.6333186565918,-0.0172879509627819,-0.012161205522716,0.0526230596005917
2.92584620415934,-2.29125568736746,-0.141388578464281,-13.6333186565918,-0.0174353290349245,-0.0122691504657269,0.0529279224574566
2.92584620415934,-2.29125568736746,-0.141388578464281,-13.6333186565918,-0.0175830684602261,-0.0123774129897356,0.0532319508492947
2.92584620415934,-2.29125568736746,-0.141388578464281,-13.6333186565918,-0.0177311692386866,-0.0124859930947423,0.0535351485013962
2.92584620415934,-2.29125568736746,-0.141388578464281,-13.6333186565918,-0.0178796332329512,-0.0125948917120695,0.0538375191390514
2.92584620415934,-2.29125568736746,-0.141388578464281,-13.6333186565918,-0.0180284585803747,-0.0127041079103947,0.0541390590369701
2.92584620415934,-2.29125568736746,-0.141388578464281,-13.6333186565918,-0.0181776452809572,-0.0128136416897178,0.0544397719204426
2.92584620415934,-2.29125568736746,-0.141388578464281,-13.6333186565918,-0.0183271933346987,-0.0129234930500388,0.0547396577894688
2.92584620415934,-2.29125568736746,-0.141388578464281,-13.6333186565918,-0.0184771027415991,-0.0130336619913578,0.0550387166440487
2.92584620415934,-2.29125568736746,-0.141388578464281,-13.6333186565918,-0.0186273735016584,-0.0131441485136747,0.0553369522094727
2.92584620415934,-2.29125568736746,-0.141388578464281,-13.6333186565918,-0.0187780037522316,-0.0132549526169896,0.0556343644857407
2.92584620415934,-2.29125568736746,-0.141388578464281,-13.6333186565918,-0.0189289953559637,-0.0133660743013024,0.0559309534728527
2.92584620415934,-2.29125568736746,-0.141388578464281,-13.6333186565918,-0.0190803483128548,-0.0134775135666132,0.0562267191708088
2.92584620415934,-2.29125568736746,-0.141388578464281,-13.6333186565918,-0.0192320607602596,-0.0135892704129219,0.0565216615796089
2.92584620415934,-2.29125568736746,-0.141388578464281,-13.6333186565918,-0.0193841345608234,-0.0137013448402286,0.0568157844245434
2.92584620415934,-2.29125568736746,-0.141388578464281,-13.6333186565918,-0.0195365678519011,-0.0138137368485332,0.0571090877056122
2.92584620415934,-2.29125568736746,-0.141388578464281,-13.6333186565918,-0.0196893624961376,-0.0139264464378357,0.0574015714228153
2.92584620415934,-2.29125568736746,-0.141388578464281,-13.6333186565918,-0.019842516630888,-0.0140394736081362,0.0576932393014431
2.92584620415934,-2.29125568736746,-0.141388578464281,-13.6333186565918,-0.0199960302561522,-0.0141528183594346,0.0579840876162052
2.92584620415934,-2.29125568736746,-0.141388578464281,-13.6333186565918,-0.0201499033719301,-0.014266480691731,0.058274120092392
2.92584620415934,-2.29125568736746,-0.141388578464281,-13.6333186565918,-0.020304137840867,-0.0143804606050253,0.0585633404552937
2.92584620415934,-2.29125568736746,-0.141388578464281,-13.6333186565918,-0.0204587318003178,-0.0144947580993176,0.05885174497962
2.92584620415934,-2.29125568736746,-0.141388578464281,-13.6333186565918,-0.0206136852502823,-0.0146093731746078,0.0591393373906612
2.92584620415934,-2.29125568736746,-0.141388578464281,-13.6333186565918,-0.0207689981907606,-0.0147243058308959,0.0594261176884174
2.92584620415934,-2.29125568736746,-0.141388578464281,-13.6333186565918,-0.0209246687591076,-0.014839556068182,0.0597120858728886
2.92584620415934,-2.29125568736746,-0.141388578464281,-13.6333186565918,-0.0210806988179684,-0.014955123886466,0.0599972419440746
2.92584620415934,-2.29125568736746,-0.141388578464281,-13.6333186565918,-0.0212370883673429,-0.0150710083544254,0.0602815896272659
2.92584620415934,-2.29125568736746,-0.141388578464281,-13.6333186565918,-0.0213938374072313,-0.0151872104033828,0.0605651289224625
2.92584620415934,-2.29125568736746,-0.141388578464281,-13.6333186565918,-0.0215509440749884,-0.0153037300333381,0.0608478598296642
2.92584620415934,-2.29125568736746,-0.141388578464281,-13.6333186565918,-0.0217084102332592,-0.0154205672442913,0.0611297823488712
2.92584620415934,-2.29125568736746,-0.141388578464281,-13.6333186565918,-0.0218662340193987,-0.0155377220362425,0.0614109002053738
2.92584620415934,-2.29125568736746,-0.141388578464281,-13.6333186565918,-0.022024417296052,-0.015655193477869,0.0616912133991718
2.92584620415934,-2.29125568736746,-0.141388578464281,-13.6333186565918,-0.0221829582005739,-0.0157729834318161,0.0619707219302654
2.92584620415934,-2.29125568736746,-0.141388578464281,-13.6333186565918,-0.0223418567329645,-0.0158910900354385,0.0622494257986546
2.92584620415934,-2.29125568736746,-0.141388578464281,-13.6333186565918,-0.0225011128932238,-0.0160095132887363,0.0625273287296295
2.92584620415934,-2.29125568736746,-0.141388578464281,-13.6333186565918,-0.0226607285439968,-0.0161282550543547,0.0628044307231903
2.92584620415934,-2.29125568736746,-0.141388578464281,-13.6333186565918,-0.0228207018226385,-0.0162473134696484,0.0630807280540466
2.92584620415934,-2.29125568736746,-0.141388578464281,-13.6333186565918,-0.0229810327291489,-0.0163666903972626,0.0633562281727791
2.92584620415934,-2.29125568736746,-0.141388578464281,-13.6333186565918,-0.0231417212635279,-0.0164863839745522,0.0636309310793877
2.92584620415934,-2.29125568736746,-0.141388578464281,-13.6333186565918,-0.0233027655631304,-0.0166063942015171,0.0639048367738724
2.92584620415934,-2.29125568736746,-0.141388578464281,-13.6333186565918,-0.0234641674906015,-0.0167267229408026,0.0641779452562332
2.92584620415934,-2.29125568736746,-0.141388578464281,-13.6333186565918,-0.0236259270459414,-0.0168473683297634,0.0644502565264702
2.92584620415934,-2.29125568736746,-0.141388578464281,-13.6333186565918,-0.0237880442291498,-0.0169683303683996,0.0647217705845833
2.92584620415934,-2.29125568736746,-0.141388578464281,-13.6333186565918,-0.0239505171775818,-0.0170896109193563,0.0649924874305725
2.92584620415934,-2.29125568736746,-0.141388578464281,-13.6333186565918,-0.0241133477538824,-0.0172112081199884,0.0652624145150185
2.92584620415934,-2.29125568736746,-0.141388578464281,-13.6333186565918,-0.0242765340954065,-0.0173331219702959,0.0655315518379211
2.92584620415934,-2.29125568736746,-0.141388578464281,-13.6333186565918,-0.0244400780647993,-0.0174553524702787,0.0657998919487
2.92584620415934,-2.29125568736746,-0.141388578464281,-13.6333186565918,-0.0246039777994156,-0.0175779014825821,0.0660674422979355
2.92584620415934,-2.29125568736746,-0.141388578464281,-13.6333186565918,-0.0247682332992554,-0.0177007671445608,0.0663342028856277
2.92584620415934,-2.29125568736746,-0.141388578464281,-13.6333186565918,-0.0249328445643187,-0.0178239494562149,0.0666001737117767
2.92584620415934,-2.29125568736746,-0.141388578464281,-13.6333186565918,-0.0250978134572506,-0.0179474502801895,0.066865362226963
2.92584620415934,-2.29125568736746,-0.141388578464281,-13.6333186565918,-0.025263138115406,-0.0180712677538395,0.0671297609806061
2.92584620415934,-2.29125568736746,-0.141388578464281,-13.6333186565918,-0.025428818538785,-0.0181954018771648,0.0673933699727058
2.92584620415934,-2.29125568736746,-0.141388578464281,-13.6333186565918,-0.0255948547273874,-0.0183198526501656,0.0676561966538429
2.92584620415934,-2.29125568736746,-0.141388578464281,-13.6333186565918,-0.0257612448185682,-0.0184446200728416,0.0679182410240173
2.92584620415934,-2.29125568736746,-0.141388578464281,-13.6333186565918,-0.0259279906749725,-0.0185697060078382,0.0681794956326485
2.92584620415934,-2.29125568736746,-0.141388578464281,-13.6333186565918,-0.0260950922966003,-0.0186951085925102,0.0684399679303169
2.92584620415934,-2.29125568736746,-0.141388578464281,-13.6333186565918,-0.0262625496834517,-0.0188208278268576,0.0686996579170227
2.92584620415934,-2.29125568736746,-0.141388578464281,-13.6333186565918,-0.0264303609728813,-0.0189468637108803,0.0689585730433464
2.92584620415934,-2.29125568736746,-0.141388578464281,-13.6333186565918,-0.0265985280275345,-0.0190732181072235,0.0692167058587074
2.92584620415934,-2.29125568736746,-0.141388578464281,-13.6333186565918,-0.026767048984766,-0.0191998891532421,0.0694740563631058
2.92584620415934,-2.29125568736746,-0.141388578464281,-13.6333186565918,-0.026935925707221,-0.0193268768489361,0.069730632007122
2.92584620415934,-2.29125568736746,-0.141388578464281,-13.6333186565918,-0.0271051563322544,-0.0194541811943054,0.0699864253401756
2.92584620415934,-2.29125568736746,-0.141388578464281,-13.6333186565918,-0.0272747408598661,-0.0195818021893501,0.0702414438128471
2.92584620415934,-2.29125568736746,-0.141388578464281,-13.6333186565918,-0.0274446811527014,-0.0197097398340702,0.0704956874251366
2.92584620415934,-2.29125568736746,-0.141388578464281,-13.6333186565918,-0.027614975348115,-0.0198379959911108,0.0707491561770439
2.92584620415934,-2.29125568736746,-0.141388578464281,-13.6333186565918,-0.0277856234461069,-0.0199665687978268,0.0710018500685692
2.92584620415934,-2.29125568736746,-0.141388578464281,-13.6333186565918,-0.0279566254466772,-0.0200954582542181,0.071253776550293
2.92584620415934,-2.29125568736746,-0.141388578464281,-13.6333186565918,-0.0281279813498259,-0.0202246643602848,0.0715049281716347
2.92584620415934,-2.29125568736746,-0.141388578464281,-13.6333186565918,-0.0282996911555529,-0.0203541871160269,0.0717553049325943
2.92584620415934,-2.29125568736746,-0.141388578464281,-13.6333186565918,-0.0284717530012131,-0.0204840265214443,0.0720049142837524
2.92584620415934,-2.29125568736746,-0.141388578464281,-13.6333186565918,-0.0286441687494516,-0.0206141825765371,0.0722537562251091
2.92584620415934,-2.29125568736746,-0.141388578464281,-13.6333186565918,-0.0288169384002686,-0.0207446552813053,0.0725018307566643
2.92584620415934,-2.29125568736746,-0.141388578464281,-13.6333186565918,-0.0289900600910187,-0.0208754446357489,0.072749137878418
2.92584620415934,-2.29125568736746,-0.141388578464281,-13.6333186565918,-0.0291635356843472,-0.0210065506398678,0.0729956775903702
2.92584620415934,-2.29125568736746,-0.141388578464281,-13.6333186565918,-0.0293373633176088,-0.0211379751563072,0.0732414498925209
2.92584620415934,-2.29125568736746,-0.141388578464281,-13.6333186565918,-0.0295115448534489,-0.021269716322422,0.0734864547848701
2.92584620415934,-2.29125568736746,-0.141388578464281,-13.6333186565918,-0.0296860784292221,-0.0214017741382122,0.0737306997179985
2.92584620415934,-2.29125568736746,-0.141388578464281,-13.6333186565918,-0.0298609640449286,-0.0215341486036778,0.0739741772413254
2.92584620415934,-2.29125568736746,-0.141388578464281,-13.6333186565918,-0.0300362035632133,-0.0216668397188187,0.0742168948054314
2.92584620415934,-2.29125568736746,-0.141388578464281,-13.6333186565918,-0.0302117951214314,-0.0217998474836349,0.0744588524103165
2.92584620415934,-2.29125568736746,-0.141388578464281,-13.6333186565918,-0.0303877387195826,-0.0219331718981266,0.0747000426054001
2.92584620415934,-2.29125568736746,-0.141388578464281,-13.6333186565918,-0.030564034357667,-0.0220668129622936,0.0749404728412628
2.92584620415934,-2.29125568736746,-0.141388578464281,-13.6333186565918,-0.0307406820356846,-0.022200770676136,0.0751801505684853
2.92584620415934,-2.29125568736746,-0.141388578464281,-13.6333186565918,-0.0309176817536354,-0.0223350450396538,0.0754190683364868
2.92584620415934,-2.29125568736746,-0.141388578464281,-13.6333186565918,-0.0310950316488743,-0.0224696360528469,0.0756572261452675
2.92584620415934,-2.29125568736746,-0.141388578464281,-13.6333186565918,-0.0312727354466915,-0.0226045437157154,0.0758946314454079
2.92584620415934,-2.29125568736746,-0.141388578464281,-13.6333186565918,-0.0314507894217968,-0.0227397680282593,0.0761312767863274
2.92584620415934,-2.29125568736746,-0.141388578464281,-13.6333186565918,-0.0316291935741901,-0.0228753071278334,0.0763671696186066
2.92584620415934,-2.29125568736746,-0.141388578464281,-13.6333186565918,-0.0318079479038715,-0.0230111628770828,0.0766023099422455
2.92584620415934,-2.29125568736746,-0.141388578464281,-13.6333186565918,-0.0319870561361313,-0.0231473352760077,0.0768366977572441
2.92584620415934,-2.29125568736746,-0.141388578464281,-13.6333186565918,-0.0321665145456791,-0.0232838243246078,0.0770703330636024
2.92584620415934,-2.29125568736746,-0.141388578464281,-13.6333186565918,-0.032346323132515,-0.0234206300228834,0.0773032158613205
2.92584620415934,-2.29125568736746,-0.141388578464281,-13.6333186565918,-0.0325264818966389,-0.0235577523708344,0.0775353461503983
2.92584620415934,-2.29125568736746,-0.141388578464281,-13.6333186565918,-0.0327069908380508,-0.0236951913684607,0.0777667313814163
2.92584620415934,-2.29125568736746,-0.141388578464281,-13.6333186565918,-0.0328878499567509,-0.0238329470157623,0.0779973641037941
2.92584620415934,-2.29125568736746,-0.141388578464281,-13.6333186565918,-0.033069059252739,-0.0239710193127394,0.0782272517681122
2.92584620415934,-2.29125568736746,-0.141388578464281,-13.6333186565918,-0.0332506187260151,-0.0241094082593918,0.0784563943743706
2.92584620415934,-2.29125568736746,-0.141388578464281,-13.6333186565918,-0.0334325283765793,-0.0242481119930744,0.0786847919225693
2.92584620415934,-2.29125568736746,-0.141388578464281,-13.6333186565918,-0.0336147882044315,-0.0243871323764324,0.0789124444127083
2.92584620415934,-2.29125568736746,-0.141388578464281,-13.6333186565918,-0.0337973982095718,-0.0245264694094658,0.0791393518447876
2.92584620415934,-2.29125568736746,-0.141388578464281,-13.6333186565918,-0.0339803583920002,-0.0246661230921745,0.0793655142188072
2.92584620415934,-2.29125568736746,-0.141388578464281,-13.6333186565918,-0.0341636687517166,-0.0248060934245586,0.0795909315347672
2.92584620415934,-2.29125568736746,-0.141388578464281,-13.6333186565918,-0.0343473292887211,-0.0249463804066181,0.079815611243248
2.92584620415934,-2.29125568736746,-0.141388578464281,-13.6333186565918,-0.0345313362777233,-0.0250869821757078,0.0800395458936691
2.92584620415934,-2.29125568736746,-0.141388578464281,-13.6333186565918,-0.0347156934440136,-0.0252279005944729,0.0802627429366112
2.92584620415934,-2.29125568736746,-0.141388578464281,-13.6333186565918,-0.0349004007875919,-0.0253691356629133,0.0804852023720741
2.92584620415934,-2.29125568736746,-0.141388578464281,-13.6333186565918,-0.035085454583168,-0.0255106873810291,0.080706924200058
2.92584620415934,-2.29125568736746,-0.141388578464281,-13.6333186565918,-0.0352708585560322,-0.0256525538861752,0.0809279084205627
2.92584620415934,-2.29125568736746,-0.141388578464281,-13.6333186565918,-0.0354566127061844,-0.0257947370409966,0.0811481550335884
2.92584620415934,-2.29125568736746,-0.141388578464281,-13.6333186565918,-0.0356427133083344,-0.0259372368454933,0.081367664039135
2.92584620415934,-2.29125568736746,-0.141388578464281,-13.6333186565918,-0.0358291640877724,-0.0260800532996655,0.0815864428877831
2.92584620415934,-2.29125568736746,-0.141388578464281,-13.6333186565918,-0.0360159613192081,-0.0262231845408678,0.081804484128952
2.92584620415934,-2.29125568736746,-0.141388578464281,-13.6333186565918,-0.036203108727932,-0.0263666324317455,0.0820217952132225
2.92584620415934,-2.29125568736746,-0.141388578464281,-13.6333186565918,-0.0363906025886536,-0.0265103969722986,0.0822383761405945
2.92584620415934,-2.29125568736746,-0.141388578464281,-13.6333186565918,-0.0365784429013729,-0.0266544762998819,0.0824542194604874
2.92584620415934,-2.29125568736746,-0.141388578464281,-13.6333186565918,-0.0367666333913803,-0.0267988722771406,0.0826693326234818
2.92584620415934,-2.29125568736746,-0.141388578464281,-13.6333186565918,-0.0369551703333855,-0.0269435849040747,0.0828837156295776
2.92584620415934,-2.29125568736746,-0.141388578464281,-13.6333186565918,-0.0371440537273884,-0.0270886123180389,0.0830973759293556
2.92584620415934,-2.29125568736746,-0.141388578464281,-13.6333186565918,-0.0373332872986794,-0.0272339563816786,0.0833103060722351
2.92584620415934,-2.29125568736746,-0.141388578464281,-13.6333186565918,-0.0375228673219681,-0.0273796170949936,0.0835225060582161
2.92584620415934,-2.29125568736746,-0.141388578464281,-13.6333186565918,-0.0377127937972546,-0.0275255925953388,0.0837339833378792
2.92584620415934,-2.29125568736746,-0.141388578464281,-13.6333186565918,-0.0379030667245388,-0.0276718847453594,0.0839447379112244
2.92584620415934,-2.29125568736746,-0.141388578464281,-13.6333186565918,-0.0380936861038208,-0.0278184916824102,0.0841547623276711
2.92584620415934,-2.29125568736746,-0.141388578464281,-13.6333186565918,-0.0382846519351006,-0.0279654152691364,0.0843640640377998
2.92584620415934,-2.29125568736746,-0.141388578464281,-13.6333186565918,-0.0384759679436684,-0.028112655505538,0.0845726430416107
2.92584620415934,-2.29125568736746,-0.141388578464281,-13.6333186565918,-0.0386676304042339,-0.0282602105289698,0.0847804993391037
2.92584620415934,-2.29125568736746,-0.141388578464281,-13.6333186565918,-0.0388596393167973,-0.0284080822020769,0.0849876403808594
2.92584620415934,-2.29125568736746,-0.141388578464281,-13.6333186565918,-0.039051990956068,-0.0285562686622143,0.0851940587162972
2.92584620415934,-2.29125568736746,-0.141388578464281,-13.6333186565918,-0.0392446890473366,-0.028704771772027,0.085399754345417
2.92584620415934,-2.29125568736746,-0.141388578464281,-13.6333186565918,-0.0394377335906029,-0.02885358966887,0.0856047347187996
2.92584620415934,-2.29125568736746,-0.141388578464281,-13.6333186565918,-0.0396311245858669,-0.0290027242153883,0.0858089998364449
2.92584620415934,-2.29125568736746,-0.141388578464281,-13.6333186565918,-0.0398248620331287,-0.0291521735489368,0.0860125496983528
2.92584620415934,-2.29125568736746,-0.141388578464281,-13.6333186565918,-0.0400189459323883,-0.0293019395321608,0.0862153768539429
2.92584620415934,-2.29125568736746,-0.141388578464281,-13.6333186565918,-0.0402133725583553,-0.0294520203024149,0.0864174962043762
2.92584620415934,-2.29125568736746,-0.141388578464281,-13.6333186565918,-0.0404081456363201,-0.0296024177223444,0.0866189002990723
2.92584620415934,-2.29125568736746,-0.141388578464281,-13.6333186565918,-0.0406032651662827,-0.0297531299293041,0.086819589138031
2.92584620415934,-2.29125568736746,-0.141388578464281,-13.6333186565918,-0.040798731148243,-0.0299041587859392,0.0870195627212524
2.92584620415934,-2.29125568736746,-0.141388578464281,-13.6333186565918,-0.0409945398569107,-0.0300555024296045,0.0872188284993172
2.92584620415934,-2.29125568736746,-0.141388578464281,-13.6333186565918,-0.0411906950175762,-0.0302071627229452,0.0874173790216446
2.92584620415934,-2.29125568736746,-0.141388578464281,-13.6333186565918,-0.0413871929049492,-0.0303591378033161,0.0876152217388153
2.92584620415934,-2.29125568736746,-0.141388578464281,-13.6333186565918,-0.0415840372443199,-0.0305114276707172,0.0878123566508293
2.92584620415934,-2.29125568736746,-0.141388578464281,-13.6333186565918,-0.0417812243103981,-0.0306640341877937,0.0880087837576866
2.92584620415934,-2.29125568736746,-0.141388578464281,-13.6333186565918,-0.041978757828474,-0.0308169554919004,0.0882045030593872
2.92584620415934,-2.29125568736746,-0.141388578464281,-13.6333186565918,-0.0421766340732574,-0.0309701934456825,0.0883995145559311
2.92584620415934,-2.29125568736746,-0.141388578464281,-13.6333186565918,-0.0423748530447483,-0.0311237461864948,0.0885938182473183
2.92584620415934,-2.29125568736746,-0.141388578464281,-13.6333186565918,-0.0425734184682369,-0.0312776155769825,0.0887874215841293
2.92584620415934,-2.29125568736746,-0.141388578464281,-13.6333186565918,-0.042772326618433,-0.0314317978918552,0.0889803171157837
2.92584620415934,-2.29125568736746,-0.141388578464281,-13.6333186565918,-0.0429715774953365,-0.0315862968564034,0.0891725122928619
2.92584620415934,-2.29125568736746,-0.141388578464281,-13.6333186565918,-0.0431711748242378,-0.0317411124706268,0.0893640071153641
2.92584620415934,-2.29125568736746,-0.141388578464281,-13.6333186565918,-0.0433711148798466,-0.0318962410092354,0.0895547941327095
2.92584620415934,-2.29125568736746,-0.141388578464281,-13.6333186565918,-0.0435713976621628,-0.0320516861975193,0.0897448807954788
2.92584620415934,-2.29125568736746,-0.141388578464281,-13.6333186565918,-0.0437720231711864,-0.0322074480354786,0.089934267103672
2.92584620415934,-2.29125568736746,-0.141388578464281,-13.6333186565918,-0.0439729914069176,-0.032363522797823,0.0901229605078697
2.92584620415934,-2.29125568736746,-0.141388578464281,-13.6333186565918,-0.0441743023693562,-0.0325199142098427,0.0903109535574913
2.92584620415934,-2.29125568736746,-0.141388578464281,-13.6333186565918,-0.0443759560585022,-0.0326766185462475,0.0904982462525368
2.92584620415934,-2.29125568736746,-0.141388578464281,-13.6333186565918,-0.0445779524743557,-0.0328336395323277,0.0906848460435867
2.92584620415934,-2.29125568736746,-0.141388578464281,-13.6333186565918,-0.0447802916169167,-0.0329909771680832,0.0908707529306412
2.92584620415934,-2.29125568736746,-0.141388578464281,-13.6333186565918,-0.0449829734861851,-0.0331486277282238,0.0910559594631195
2.92584620415934,-2.29125568736746,-0.141388578464281,-13.6333186565918,-0.045185998082161,-0.0333065949380398,0.0912404730916023
2.92584620415934,-2.29125568736746,-0.141388578464281,-13.6333186565918,-0.0453893654048443,-0.0334648750722408,0.0914242938160896
2.92584620415934,-2.29125568736746,-0.141388578464281,-13.6333186565918,-0.0455930754542351,-0.0336234718561172,0.0916074216365814
2.92584620415934,-2.29125568736746,-0.141388578464281,-13.6333186565918,-0.0457971282303333,-0.033782385289669,0.0917898565530777
2.92584620415934,-2.29125568736746,-0.141388578464281,-13.6333186565918,-0.0460015200078487,-0.0339416116476059,0.0919716060161591
2.92584620415934,-2.29125568736746,-0.141388578464281,-13.6333186565918,-0.0462062545120716,-0.0341011546552181,0.0921526625752449
2.92584620415934,-2.29125568736746,-0.141388578464281,-13.6333186565918,-0.0464113317430019,-0.0342610105872154,0.0923330336809158
2.92584620415934,-2.29125568736746,-0.141388578464281,-13.6333186565918,-0.0466167517006397,-0.0344211831688881,0.0925127118825912
2.92584620415934,-2.29125568736746,-0.141388578464281,-13.6333186565918,-0.0468225106596947,-0.0345816686749458,0.0926917046308517
2.92584620415934,-2.29125568736746,-0.141388578464281,-13.6333186565918,-0.0470286123454571,-0.0347424708306789,0.0928700119256973
2.92584620415934,-2.29125568736746,-0.141388578464281,-13.6333186565918,-0.0472350530326366,-0.0349035859107971,0.093047633767128
2.92584620415934,-2.29125568736746,-0.141388578464281,-13.6333186565918,-0.0474418364465237,-0.0350650176405907,0.0932245701551437
2.92584620415934,-2.29125568736746,-0.141388578464281,-13.6333186565918,-0.0476489588618279,-0.0352267660200596,0.0934008210897446
2.92584620415934,-2.29125568736746,-0.141388578464281,-13.6333186565918,-0.0478564240038395,-0.0353888273239136,0.0935763865709305
2.92584620415934,-2.29125568736746,-0.141388578464281,-13.6333186565918,-0.0480642281472683,-0.0355512052774429,0.0937512740492821
2.92584620415934,-2.29125568736746,-0.141388578464281,-13.6333186565918,-0.0482723750174046,-0.0357138961553574,0.0939254760742188
2.92584620415934,-2.29125568736746,-0.141388578464281,-13.6333186565918,-0.048480860888958,-0.0358769036829472,0.0940990000963211
2.92584620415934,-2.29125568736746,-0.141388578464281,-13.6333186565918,-0.0486896857619286,-0.036040224134922,0.0942718461155891
2.92584620415934,-2.29125568736746,-0.141388578464281,-13.6333186565918,-0.0488988533616066,-0.0362038612365723,0.0944440141320229
2.92584620415934,-2.29125568736746,-0.141388578464281,-13.6333186565918,-0.0491083599627018,-0.0363678112626076,0.0946155041456223
2.92584620415934,-2.29125568736746,-0.141388578464281,-13.6333186565918,-0.0493182055652142,-0.036532074213028,0.0947863161563873
2.92584620415934,-2.29125568736746,-0.141388578464281,-13.6333186565918,-0.0495283901691437,-0.0366966538131237,0.0949564501643181
2.92584620415934,-2.29125568736746,-0.141388578464281,-13.6333186565918,-0.0497389137744904,-0.0368615463376045,0.0951259061694145
2.92584620415934,-2.29125568736746,-0.141388578464281,-13.6333186565918,-0.0499497763812542,-0.0370267555117607,0.0952946916222572
2.92584620415934,-2.29125568736746,-0.141388578464281,-13.6333186565918,-0.0501609817147255,-0.037192277610302,0.0954627990722656
2.92584620415934,-2.29125568736746,-0.141388578464281,-13.6333186565918,-0.050372526049614,-0.0373581163585186,0.0956302359700203
2.92584620415934,-2.29125568736746,-0.141388578464281,-13.6333186565918,-0.0505844093859196,-0.0375242680311203,0.0957970023155212
2.92584620415934,-2.29125568736746,-0.141388578464281,-13.6333186565918,-0.0507966317236423,-0.0376907363533974,0.0959630906581879
2.92584620415934,-2.29125568736746,-0.141388578464281,-13.6333186565918,-0.0510091930627823,-0.0378575176000595,0.0961285084486008
2.92584620415934,-2.29125568736746,-0.141388578464281,-13.6333186565918,-0.0512220896780491,-0.0380246117711067,0.0962932631373405
2.92584620415934,-2.29125568736746,-0.141388578464281,-13.6333186565918,-0.051435325294733,-0.0381920225918293,0.0964573472738266
2.92584620415934,-2.29125568736746,-0.141388578464281,-13.6333186565918,-0.0516488999128342,-0.038359746336937,0.0966207608580589
2.92584620415934,-2.29125568736746,-0.141388578464281,-13.6333186565918,-0.0518628135323524,-0.03852778673172,0.0967835038900375
2.92584620415934,-2.29125568736746,-0.141388578464281,-13.6333186565918,-0.0520770661532879,-0.0386961400508881,0.096945583820343
2.92584620415934,-2.29125568736746,-0.141388578464281,-13.6333186565918,-0.0522916540503502,-0.0388648062944412,0.0971070006489754
2.92584620415934,-2.29125568736746,-0.141388578464281,-13.6333186565918,-0.0525065809488297,-0.0390337891876698,0.097267746925354
2.92584620415934,-2.29125568736746,-0.141388578464281,-13.6333186565918,-0.0527218468487263,-0.0392030850052834,0.0974278301000595
2.92584620415934,-2.29125568736746,-0.141388578464281,-13.6333186565918,-0.0529374517500401,-0.0393726974725723,0.0975872501730919
2.92584620415934,-2.29125568736746,-0.141388578464281,-13.6333186565918,-0.0531533919274807,-0.0395426228642464,0.0977460071444511
2.92584620415934,-2.29125568736746,-0.141388578464281,-13.6333186565918,-0.0533696711063385,-0.0397128611803055,0.0979041010141373
2.92584620415934,-2.29125568736746,-0.141388578464281,-13.6333186565918,-0.0535862855613232,-0.03988341614604,0.0980615392327309
2.92584620415934,-2.29125568736746,-0.141388578464281,-13.6333186565918,-0.053803239017725,-0.0400542840361595,0.0982183143496513
2.92584620415934,-2.29125568736746,-0.141388578464281,-13.6333186565918,-0.0540205277502537,-0.0402254648506641,0.0983744338154793
2.92584620415934,-2.29125568736746,-0.141388578464281,-13.6333186565918,-0.0542381554841995,-0.0403969623148441,0.0985298901796341
2.92584620415934,-2.29125568736746,-0.141388578464281,-13.6333186565918,-0.0544561184942722,-0.0405687727034092,0.0986846908926964
2.92584620415934,-2.29125568736746,-0.141388578464281,-13.6333186565918,-0.0546744167804718,-0.0407408960163593,0.0988388359546661
2.92584620415934,-2.29125568736746,-0.141388578464281,-13.6333186565918,-0.0548930540680885,-0.0409133322536945,0.0989923253655434
2.92584620415934,-2.29125568736746,-0.141388578464281,-13.6333186565918,-0.0551120266318321,-0.0410860851407051,0.0991451591253281
2.92584620415934,-2.29125568736746,-0.141388578464281,-13.6333186565918,-0.0553313344717026,-0.0412591509521008,0.0992973372340202
2.92584620415934,-2.29125568736746,-0.141388578464281,-13.6333186565918,-0.0555509775876999,-0.0414325296878815,0.0994488596916199
2.92584620415934,-2.29125568736746,-0.141388578464281,-13.6333186565918,-0.0557709597051144,-0.0416062250733376,0.0995997339487076
2.92584620415934,-2.29125568736746,-0.141388578464281,-13.6333186565918,-0.0559912770986557,-0.0417802333831787,0.0997499525547028
2.92584620415934,-2.29125568736746,-0.141388578464281,-13.6333186565918,-0.0562119297683239,-0.0419545546174049,0.099899522960186
2.92584620415934,-2.29125568736746,-0.141388578464281,-13.6333186565918,-0.056432917714119,-0.0421291887760162,0.100048437714577
2.92584620415934,-2.29125568736746,-0.141388578464281,-13.6333186565918,-0.0566542409360409,-0.0423041395843029,0.100196704268456
2.92584620415934,-2.29125568736746,-0.141388578464281,-13.6333186565918,-0.0568758994340897,-0.0424794033169746,0.100344322621822
2.92584620415934,-2.29125568736746,-0.141388578464281,-13.6333186565918,-0.0570978932082653,-0.0426549799740314,0.100491292774677
2.92584620415934,-2.29125568736746,-0.141388578464281,-13.6333186565918,-0.0573202222585678,-0.0428308695554733,0.10063761472702
2.92584620415934,-2.29125568736746,-0.141388578464281,-13.6333186565918,-0.0575428865849972,-0.0430070757865906,0.100783295929432
2.92584620415934,-2.29125568736746,-0.141388578464281,-13.6333186565918,-0.0577658861875534,-0.0431835949420929,0.100928328931332
2.92584620415934,-2.29125568736746,-0.141388578464281,-13.6333186565918,-0.0579892210662365,-0.0433604270219803,0.101072713732719
2.92584620415934,-2.29125568736746,-0.141388578464281,-13.6333186565918,-0.0582128912210464,-0.0435375720262527,0.101216457784176
2.92584620415934,-2.29125568736746,-0.141388578464281,-13.6333186565918,-0.058436892926693,-0.0437150299549103,0.101359561085701
2.92584620415934,-2.29125568736746,-0.141388578464281,-13.6333186565918,-0.0586612299084663,-0.0438928008079529,0.101502016186714
2.92584620415934,-2.29125568736746,-0.141388578464281,-13.6333186565918,-0.0588859021663666,-0.0440708883106709,0.101643830537796
2.92584620415934,-2.29125568736746,-0.141388578464281,-13.6333186565918,-0.0591109059751034,-0.0442492887377739,0.101785004138947
2.92584620415934,-2.29125568736746,-0.141388578464281,-13.6333186565918,-0.059336245059967,-0.044428002089262,0.101925536990166
2.92584620415934,-2.29125568736746,-0.141388578464281,-13.6333186565918,-0.0595619194209576,-0.0446070283651352,0.102065436542034
2.92584620415934,-2.29125568736746,-0.141388578464281,-13.6333186565918,-0.0597879253327847,-0.0447863675653934,0.102204695343971
2.92584620415934,-2.29125568736746,-0.141388578464281,-13.6333186565918,-0.0600142665207386,-0.0449660196900368,0.102343313395977
2.92584620415934,-2.29125568736746,-0.141388578464281,-13.6333186565918,-0.0602409392595291,-0.0451459884643555,0.102481298148632
2.92584620415934,-2.29125568736746,-0.141388578464281,-13.6333186565918,-0.0604679472744465,-0.0453262701630592,0.102618649601936
2.92584620415934,-2.29125568736746,-0.141388578464281,-13.6333186565918,-0.0606952868402004,-0.0455068647861481,0.102755360305309
2.92584620415934,-2.29125568736746,-0.141388578464281,-13.6333186565918,-0.0609229616820812,-0.045687772333622,0.102891437709332
2.92584620415934,-2.29125568736746,-0.141388578464281,-13.6333186565918,-0.0611509680747986,-0.045868992805481,0.103026881814003
2.92584620415934,-2.29125568736746,-0.141388578464281,-13.6333186565918,-0.0613793060183525,-0.046050526201725,0.103161692619324
2.92584620415934,-2.29125568736746,-0.141388578464281,-13.6333186565918,-0.0616079792380333,-0.0462323725223541,0.103295870125294
2.92584620415934,-2.29125568736746,-0.141388578464281,-13.6333186565918,-0.0618369840085506,-0.0464145317673683,0.103429421782494
2.92584620415934,-2.29125568736746,-0.141388578464281,-13.6333186565918,-0.0620663203299046,-0.0465970039367676,0.103562340140343
2.92584620415934,-2.29125568736746,-0.141388578464281,-13.6333186565918,-0.062295988202095,-0.0467797890305519,0.103694632649422
2.92584620415934,-2.29125568736746,-0.141388578464281,-13.6333186565918,-0.0625259876251221,-0.0469628870487213,0.10382629185915
2.92584620415934,-2.29125568736746,-0.141388578464281,-13.6333186565918,-0.062756322324276,-0.0471462979912758,0.103957325220108
2.92584620415934,-2.29125568736746,-0.141388578464281,-13.6333186565918,-0.0629869848489761,-0.0473300218582153,0.104087732732296
2.92584620415934,-2.29125568736746,-0.141388578464281,-13.6333186565918,-0.0632179826498032,-0.0475140623748302,0.104217514395714
2.92584620415934,-2.29125568736746,-0.141388578464281,-13.6333186565918,-0.0634493082761765,-0.0476984158158302,0.104346670210361
2.92584620415934,-2.29125568736746,-0.141388578464281,-13.6333186565918,-0.0636809691786766,-0.0478830821812153,0.104475200176239
2.92584620415934,-2.29125568736746,-0.141388578464281,-13.6333186565918,-0.063912957906723,-0.0480680614709854,0.104603104293346
2.92584620415934,-2.29125568736746,-0.141388578464281,-13.6333186565918,-0.0641452819108963,-0.0482533536851406,0.104730390012264
2.92584620415934,-2.29125568736746,-0.141388578464281,-13.6333186565918,-0.0643779337406158,-0.0484389588236809,0.104857049882412
2.92584620415934,-2.29125568736746,-0.141388578464281,-13.6333186565918,-0.0646109208464623,-0.0486248768866062,0.10498309135437
2.92584620415934,-2.29125568736746,-0.141388578464281,-13.6333186565918,-0.0648442357778549,-0.0488111078739166,0.105108506977558
2.92584620415934,-2.29125568736746,-0.141388578464281,-13.6333186565918,-0.0650778785347939,-0.0489976480603218,0.105233304202557
2.92584620415934,-2.29125568736746,-0.141388578464281,-13.6333186565918,-0.0653118565678597,-0.0491845011711121,0.105357483029366
2.92584620415934,-2.29125568736746,-0.141388578464281,-13.6333186565918,-0.0655461624264717,-0.0493716672062874,0.105481043457985
2.92584620415934,-2.29125568736746,-0.141388578464281,-13.6333186565918,-0.0657808035612106,-0.0495591461658478,0.105603985488415
2.92584620415934,-2.29125568736746,-0.141388578464281,-13.6333186565918,-0.0660157725214958,-0.0497469380497932,0.105726309120655
2.92584620415934,-2.29125568736746,-0.141388578464281,-13.6333186565918,-0.0662510693073273,-0.0499350428581238,0.105848021805286
2.92584620415934,-2.29125568736746,-0.141388578464281,-13.6333186565918,-0.066486693918705,-0.0501234605908394,0.105969116091728
2.92584620415934,-2.29125568736746,-0.141388578464281,-13.6333186565918,-0.0667226538062096,-0.0503121912479401,0.106089599430561
2.92584620415934,-2.29125568736746,-0.141388578464281,-13.6333186565918,-0.0669589415192604,-0.0505012348294258,0.106209464371204
2.92584620415934,-2.29125568736746,-0.141388578464281,-13.6333186565918,-0.0671955570578575,-0.0506905913352966,0.106328718364239
2.92584620415934,-2.29125568736746,-0.141388578464281,-13.6333186565918,-0.0674325004220009,-0.0508802607655525,0.106447361409664
2.92584620415934,-2.29125568736746,-0.141388578464281,-13.6333186565918,-0.0676697790622711,-0.0510702431201935,0.106565393507481
2.92584620415934,-2.29125568736746,-0.141388578464281,-13.6333186565918,-0.0679073855280876,-0.0512605346739292,0.106682814657688
2.92584620415934,-2.29125568736746,-0.141388578464281,-13.6333186565918,-0.0681453198194504,-0.05145113915205,0.106799624860287
2.92584620415934,-2.29125568736746,-0.141388578464281,-13.6333186565918,-0.0683835819363594,-0.0516420565545559,0.106915824115276
2.92584620415934,-2.29125568736746,-0.141388578464281,-13.6333186565918,-0.0686221718788147,-0.0518332868814468,0.107031419873238
2.92584620415934,-2.29125568736746,-0.141388578464281,-13.6333186565918,-0.0688610896468163,-0.0520248301327229,0.10714640468359
2.92584620415934,-2.29125568736746,-0.141388578464281,-13.6333186565918,-0.0691003426909447,-0.0522166863083839,0.107260785996914
2.92584620415934,-2.29125568736746,-0.141388578464281,-13.6333186565918,-0.0693399235606194,-0.0524088554084301,0.107374556362629
2.92584620415934,-2.29125568736746,-0.141388578464281,-13.6333186565918,-0.0695798322558403,-0.052601333707571,0.107487723231316
2.92584620415934,-2.29125568736746,-0.141388578464281,-13.6333186565918,-0.0698200687766075,-0.052794124931097,0.107600286602974
2.92584620415934,-2.29125568736746,-0.141388578464281,-13.6333186565918,-0.070060633122921,-0.0529872290790081,0.107712246477604
2.92584620415934,-2.29125568736746,-0.141388578464281,-13.6333186565918,-0.0703015252947807,-0.0531806461513042,0.107823602855206
2.92584620415934,-2.29125568736746,-0.141388578464281,-13.6333186565918,-0.0705427452921867,-0.0533743761479855,0.107934355735779
2.92584620415934,-2.29125568736746,-0.141388578464281,-13.6333186565918,-0.070784293115139,-0.0535684153437614,0.108044512569904
2.92584620415934,-2.29125568736746,-0.141388578464281,-13.6333186565918,-0.0710261687636375,-0.0537627674639225,0.108154065907001
2.92584620415934,-2.29125568736746,-0.141388578464281,-13.6333186565918,-0.0712683722376823,-0.0539574325084686,0.108263023197651
2.92584620415934,-2.29125568736746,-0.141388578464281,-13.6333186565918,-0.0715109035372734,-0.0541524104773998,0.108371376991272
2.92584620415934,-2.29125568736746,-0.141388578464281,-13.6333186565918,-0.0717537552118301,-0.0543476976454258,0.108479134738445
2.92584620415934,-2.29125568736746,-0.141388578464281,-13.6333186565918,-0.0719969347119331,-0.0545432977378368,0.108586296439171
2.92584620415934,-2.29125568736746,-0.141388578464281,-13.6333186565918,-0.0722404420375824,-0.054739210754633,0.108692862093449
2.92584620415934,-2.29125568736746,-0.141388578464281,-13.6333186565918,-0.0724842771887779,-0.0549354366958141,0.108798831701279
2.92584620415934,-2.29125568736746,-0.141388578464281,-13.6333186565918,-0.0727284401655197,-0.0551319718360901,0.108904205262661
2.92584620415934,-2.29125568736746,-0.141388578464281,-13.6333186565918,-0.0729729309678078,-0.0553288199007511,0.109008982777596
2.92584620415934,-2.29125568736746,-0.141388578464281,-13.6333186565918,-0.0732177495956421,-0.0555259808897972,0.109113171696663
2.92584620415934,-2.29125568736746,-0.141388578464281,-13.6333186565918,-0.0734628885984421,-0.0557234510779381,0.109216764569283
2.92584620415934,-2.29125568736746,-0.141388578464281,-13.6333186565918,-0.0737083554267883,-0.055921234190464,0.109319768846035
2.92584620415934,-2.29125568736746,-0.141388578464281,-13.6333186565918,-0.0739541500806808,-0.056119330227375,0.10942217707634
2.92584620415934,-2.29125568736746,-0.141388578464281,-13.6333186565918,-0.0742002725601196,-0.0563177354633808,0.109523996710777
2.92584620415934,-2.29125568736746,-0.141388578464281,-13.6333186565918,-0.0744467154145241,-0.0565164536237717,0.109625227749348
2.92584620415934,-2.29125568736746,-0.141388578464281,-13.6333186565918,-0.0746934860944748,-0.0567154847085476,0.109725870192051
2.92584620415934,-2.29125568736746,-0.141388578464281,-13.6333186565918,-0.0749405845999718,-0.0569148249924183,0.109825924038887
2.92584620415934,-2.29125568736746,-0.141388578464281,-13.6333186565918,-0.0751880034804344,-0.0571144782006741,0.109925389289856
2.92584620415934,-2.29125568736746,-0.141388578464281,-13.6333186565918,-0.0754357501864433,-0.0573144443333149,0.110024265944958
2.92584620415934,-2.29125568736746,-0.141388578464281,-13.6333186565918,-0.0756838247179985,-0.0575147196650505,0.110122561454773
2.92584620415934,-2.29125568736746,-0.141388578464281,-13.6333186565918,-0.0759322196245193,-0.0577153079211712,0.110220268368721
2.92584620415934,-2.29125568736746,-0.141388578464281,-13.6333186565918,-0.0761809423565865,-0.0579162053763866,0.110317394137383
2.92584620415934,-2.29125568736746,-0.141388578464281,-13.6333186565918,-0.0764299854636192,-0.0581174157559872,0.110413938760757
2.92584620415934,-2.29125568736746,-0.141388578464281,-13.6333186565918,-0.0766793563961983,-0.0583189390599728,0.110509894788265
2.92584620415934,-2.29125568736746,-0.141388578464281,-13.6333186565918,-0.076929047703743,-0.0585207715630531,0.110605269670486
2.92584620415934,-2.29125568736746,-0.141388578464281,-13.6333186565918,-0.077179066836834,-0.0587229169905186,0.110700063407421
2.92584620415934,-2.29125568736746,-0.141388578464281,-13.6333186565918,-0.0774294137954712,-0.0589253716170788,0.110794275999069
2.92584620415934,-2.29125568736746,-0.141388578464281,-13.6333186565918,-0.0776800811290741,-0.0591281391680241,0.110887914896011
2.92584620415934,-2.29125568736746,-0.141388578464281,-13.6333186565918,-0.0779310688376427,-0.0593312159180641,0.110980972647667
2.92584620415934,-2.29125568736746,-0.141388578464281,-13.6333186565918,-0.0781823843717575,-0.0595346055924892,0.111073449254036
2.92584620415934,-2.29125568736746,-0.141388578464281,-13.6333186565918,-0.078434020280838,-0.0597383044660091,0.111165352165699
2.92584620415934,-2.29125568736746,-0.141388578464281,-13.6333186565918,-0.0786859840154648,-0.0599423162639141,0.111256673932076
2.92584620415934,-2.29125568736746,-0.141388578464281,-13.6333186565918,-0.0789382681250572,-0.0601466372609138,0.111347422003746
2.92584620415934,-2.29125568736746,-0.141388578464281,-13.6333186565918,-0.0791908800601959,-0.0603512711822987,0.111437596380711
2.92584620415934,-2.29125568736746,-0.141388578464281,-13.6333186565918,-0.0794438123703003,-0.0605562143027782,0.111527197062969
2.92584620415934,-2.29125568736746,-0.141388578464281,-13.6333186565918,-0.0796970650553703,-0.0607614703476429,0.111616224050522
2.92584620415934,-2.29125568736746,-0.141388578464281,-13.6333186565918,-0.0799506455659866,-0.0609670355916023,0.111704677343369
2.92584620415934,-2.29125568736746,-0.141388578464281,-13.6333186565918,-0.0802045464515686,-0.0611729137599468,0.111792556941509
2.92584620415934,-2.29125568736746,-0.141388578464281,-13.6333186565918,-0.0804587677121162,-0.0613791011273861,0.111879870295525
2.92584620415934,-2.29125568736746,-0.141388578464281,-13.6333186565918,-0.0807133167982101,-0.0615856014192104,0.111966609954834
2.92584620415934,-2.29125568736746,-0.141388578464281,-13.6333186565918,-0.0809681862592697,-0.0617924109101295,0.112052783370018
2.92584620415934,-2.29125568736746,-0.141388578464281,-13.6333186565918,-0.081223376095295,-0.0619995296001434,0.112138383090496
2.92584620415934,-2.29125568736746,-0.141388578464281,-13.6333186565918,-0.0814788863062859,-0.0622069612145424,0.112223416566849
2.92584620415934,-2.29125568736746,-0.141388578464281,-13.6333186565918,-0.0817347168922424,-0.0624147020280361,0.112307883799076
2.92584620415934,-2.29125568736746,-0.141388578464281,-13.6333186565918,-0.0819908753037453,-0.0626227557659149,0.112391784787178
2.92584620415934,-2.29125568736746,-0.141388578464281,-13.6333186565918,-0.0822473540902138,-0.0628311187028885,0.112475119531155
2.92584620415934,-2.29125568736746,-0.141388578464281,-13.6333186565918,-0.0825041532516479,-0.0630397945642471,0.112557888031006
2.92584620415934,-2.29125568736746,-0.141388578464281,-13.6333186565918,-0.0827612727880478,-0.0632487758994102,0.112640090286732
2.92584620415934,-2.29125568736746,-0.141388578464281,-13.6333186565918,-0.0830187126994133,-0.0634580701589584,0.112721733748913
2.92584620415934,-2.29125568736746,-0.141388578464281,-13.6333186565918,-0.0832764729857445,-0.0636676773428917,0.112802810966969
2.92584620415934,-2.29125568736746,-0.141388578464281,-13.6333186565918,-0.0835345536470413,-0.0638775900006294,0.112883329391479
2.92584620415934,-2.29125568736746,-0.141388578464281,-13.6333186565918,-0.0837929621338844,-0.0640878155827522,0.112963281571865
2.92584620415934,-2.29125568736746,-0.141388578464281,-13.6333186565918,-0.0840516909956932,-0.0642983540892601,0.113042674958706
2.92584620415934,-2.29125568736746,-0.141388578464281,-13.6333186565918,-0.0843107402324677,-0.0645091980695724,0.113121509552002
2.92584620415934,-2.29125568736746,-0.141388578464281,-13.6333186565918,-0.0845701098442078,-0.0647203549742699,0.113199785351753
2.92584620415934,-2.29125568736746,-0.141388578464281,-13.6333186565918,-0.0848297998309135,-0.0649318248033524,0.11327750235796
2.92584620415934,-2.29125568736746,-0.141388578464281,-13.6333186565918,-0.085089810192585,-0.0651436001062393,0.113354660570621
2.92584620415934,-2.29125568736746,-0.141388578464281,-13.6333186565918,-0.0853501409292221,-0.0653556883335114,0.113431259989738
2.92584620415934,-2.29125568736746,-0.141388578464281,-13.6333186565918,-0.0856107920408249,-0.0655680894851685,0.113507308065891
2.92584620415934,-2.29125568736746,-0.141388578464281,-13.6333186565918,-0.0858717635273933,-0.06578079611063,0.113582797348499
2.92584620415934,-2.29125568736746,-0.141388578464281,-13.6333186565918,-0.0861330479383469,-0.0659938156604767,0.113657735288143
2.92584620415934,-2.29125568736746,-0.141388578464281,-13.6333186565918,-0.0863946527242661,-0.0662071406841278,0.113732114434242
2.92584620415934,-2.29125568736746,-0.141388578464281,-13.6333186565918,-0.0866565778851509,-0.066420778632164,0.113805942237377
2.92584620415934,-2.29125568736746,-0.141388578464281,-13.6333186565918,-0.0869188234210014,-0.0666347295045853,0.113879218697548
2.92584620415934,-2.29125568736746,-0.141388578464281,-13.6333186565918,-0.0871813893318176,-0.066848985850811,0.113951943814754
2.92584620415934,-2.29125568736746,-0.141388578464281,-13.6333186565918,-0.0874442756175995,-0.0670635551214218,0.114024117588997
2.92584620415934,-2.29125568736746,-0.141388578464281,-13.6333186565918,-0.087707482278347,-0.0672784298658371,0.114095740020275
2.92584620415934,-2.29125568736746,-0.141388578464281,-13.6333186565918,-0.0879710018634796,-0.0674936175346375,0.11416681855917
2.92584620415934,-2.29125568736746,-0.141388578464281,-13.6333186565918,-0.0882348418235779,-0.0677091181278229,0.1142373457551
2.92584620415934,-2.29125568736746,-0.141388578464281,-13.6333186565918,-0.0884990021586418,-0.0679249241948128,0.114307321608067
2.92584620415934,-2.29125568736746,-0.141388578464281,-13.6333186565918,-0.0887634828686714,-0.0681410431861877,0.114376753568649
2.92584620415934,-2.29125568736746,-0.141388578464281,-13.6333186565918,-0.0890282765030861,-0.0683574676513672,0.114445641636848
2.92584620415934,-2.29125568736746,-0.141388578464281,-13.6333186565918,-0.0892933905124664,-0.0685742050409317,0.114513978362083
2.92584620415934,-2.29125568736746,-0.141388578464281,-13.6333186565918,-0.0895588248968124,-0.0687912479043007,0.114581771194935
2.92584620415934,-2.29125568736746,-0.141388578464281,-13.6333186565918,-0.0898245722055435,-0.0690086036920547,0.114649020135403
2.92584620415934,-2.29125568736746,-0.141388578464281,-13.6333186565918,-0.0900906398892403,-0.0692262724041939,0.114715725183487
2.92584620415934,-2.29125568736746,-0.141388578464281,-13.6333186565918,-0.0903570279479027,-0.0694442465901375,0.114781886339188
2.92584620415934,-2.29125568736746,-0.141388578464281,-13.6333186565918,-0.0906237289309502,-0.0696625337004662,0.114847511053085
2.92584620415934,-2.29125568736746,-0.141388578464281,-13.6333186565918,-0.0908907502889633,-0.0698811262845993,0.114912591874599
2.92584620415934,-2.29125568736746,-0.141388578464281,-13.6333186565918,-0.0911580845713615,-0.0701000317931175,0.114977136254311
2.92584620415934,-2.29125568736746,-0.141388578464281,-13.6333186565918,-0.0914257392287254,-0.0703192427754402,0.115041136741638
2.92584620415934,-2.29125568736746,-0.141388578464281,-13.6333186565918,-0.091693714261055,-0.070538766682148,0.115104600787163
2.92584620415934,-2.29125568736746,-0.141388578464281,-13.6333186565918,-0.0919620022177696,-0.0707585960626602,0.115167528390884
2.92584620415934,-2.29125568736746,-0.141388578464281,-13.6333186565918,-0.0922306105494499,-0.0709787383675575,0.115229912102222
2.92584620415934,-2.29125568736746,-0.141388578464281,-13.6333186565918,-0.0924995318055153,-0.0711991861462593,0.115291759371758
2.92584620415934,-2.29125568736746,-0.141388578464281,-13.6333186565918,-0.0927687734365463,-0.0714199468493462,0.11535307019949
2.92584620415934,-2.29125568736746,-0.141388578464281,-13.6333186565918,-0.0930383279919624,-0.0716410130262375,0.115413852035999
2.92584620415934,-2.29125568736746,-0.141388578464281,-13.6333186565918,-0.0933082029223442,-0.0718623921275139,0.115474097430706
2.92584620415934,-2.29125568736746,-0.141388578464281,-13.6333186565918,-0.0935783907771111,-0.0720840767025948,0.11553380638361
2.92584620415934,-2.29125568736746,-0.141388578464281,-13.6333186565918,-0.093848891556263,-0.0723060742020607,0.115592986345291
2.92584620415934,-2.29125568736746,-0.141388578464281,-13.6333186565918,-0.0941197127103806,-0.0725283771753311,0.11565162986517
2.92584620415934,-2.29125568736746,-0.141388578464281,-13.6333186565918,-0.0943908467888832,-0.0727509930729866,0.115709744393826
2.92584620415934,-2.29125568736746,-0.141388578464281,-13.6333186565918,-0.0946622937917709,-0.0729739144444466,0.115767329931259
2.92584620415934,-2.29125568736746,-0.141388578464281,-13.6333186565918,-0.0949340611696243,-0.0731971487402916,0.11582437902689
2.92584620415934,-2.29125568736746,-0.141388578464281,-13.6333186565918,-0.0952061414718628,-0.0734206885099411,0.115880899131298
2.92584620415934,-2.29125568736746,-0.141388578464281,-13.6333186565918,-0.0954785346984863,-0.0736445412039757,0.115936890244484
2.92584620415934,-2.29125568736746,-0.141388578464281,-13.6333186565918,-0.0957512483000755,-0.0738686993718147,0.115992359817028
2.92584620415934,-2.29125568736746,-0.141388578464281,-13.6333186565918,-0.0960242748260498,-0.0740931630134583,0.11604730039835
2.92584620415934,-2.29125568736746,-0.141388578464281,-13.6333186565918,-0.0962976142764091,-0.0743179395794868,0.116101711988449
2.92584620415934,-2.29125568736746,-0.141388578464281,-13.6333186565918,-0.0965712666511536,-0.0745430216193199,0.116155602037907
2.92584620415934,-2.29125568736746,-0.141388578464281,-13.6333186565918,-0.0968452394008636,-0.0747684165835381,0.116208963096142
2.92584620415934,-2.29125568736746,-0.141388578464281,-13.6333186565918,-0.0971195250749588,-0.0749941170215607,0.116261802613735
2.92584620415934,-2.29125568736746,-0.141388578464281,-13.6333186565918,-0.097394123673439,-0.0752201303839684,0.116314120590687
2.92584620415934,-2.29125568736746,-0.141388578464281,-13.6333186565918,-0.0976690351963043,-0.0754464492201805,0.116365909576416
2.92584620415934,-2.29125568736746,-0.141388578464281,-13.6333186565918,-0.0979442596435547,-0.0756730735301971,0.116417177021503
2.92584620415934,-2.29125568736746,-0.141388578464281,-13.6333186565918,-0.0982198044657707,-0.0759000107645988,0.116467922925949
2.92584620415934,-2.29125568736746,-0.141388578464281,-13.6333186565918,-0.0984956622123718,-0.076127253472805,0.116518147289753
2.92584620415934,-2.29125568736746,-0.141388578464281,-13.6333186565918,-0.098771832883358,-0.0763548091053963,0.116567857563496
2.92584620415934,-2.29125568736746,-0.141388578464281,-13.6333186565918,-0.0990483164787292,-0.076582670211792,0.116617046296597
2.92584620415934,-2.29125568736746,-0.141388578464281,-13.6333186565918,-0.0993251129984856,-0.0768108367919922,0.116665713489056
2.92584620415934,-2.29125568736746,-0.141388578464281,-13.6333186565918,-0.099602222442627,-0.0770393162965775,0.116713866591454
2.92584620415934,-2.29125568736746,-0.141388578464281,-13.6333186565918,-0.0998796448111534,-0.0772681012749672,0.11676150560379
2.92584620415934,-2.29125568736746,-0.141388578464281,-13.6333186565918,-0.100157380104065,-0.0774971917271614,0.116808623075485
2.92584620415934,-2.29125568736746,-0.141388578464281,-13.6333186565918,-0.100435428321362,-0.0777265951037407,0.116855226457119
2.92584620415934,-2.29125568736746,-0.141388578464281,-13.6333186565918,-0.100713789463043,-0.0779563039541245,0.116901315748692
2.92584620415934,-2.29125568736746,-0.141388578464281,-13.6333186565918,-0.10099246352911,-0.0781863257288933,0.116946890950203
2.92584620415934,-2.29125568736746,-0.141388578464281,-13.6333186565918,-0.101271450519562,-0.0784166529774666,0.116991952061653
2.92584620415934,-2.29125568736746,-0.141388578464281,-13.6333186565918,-0.101550750434399,-0.0786472856998444,0.117036499083042
2.92584620415934,-2.29125568736746,-0.141388578464281,-13.6333186565918,-0.101830363273621,-0.0788782313466072,0.11708053201437
2.92584620415934,-2.29125568736746,-0.141388578464281,-13.6333186565918,-0.102110281586647,-0.0791094824671745,0.117124058306217
2.92584620415934,-2.29125568736746,-0.141388578464281,-13.6333186565918,-0.102390512824059,-0.0793410390615463,0.117167070508003
2.92584620415934,-2.29125568736746,-0.141388578464281,-13.6333186565918,-0.102671056985855,-0.0795729085803032,0.117209576070309
2.92584620415934,-2.29125568736746,-0.141388578464281,-13.6333186565918,-0.102951914072037,-0.0798050835728645,0.117251574993134
2.92584620415934,-2.29125568736746,-0.141388578464281,-13.6333186565918,-0.103233084082603,-0.0800375640392303,0.117293059825897
2.92584620415934,-2.29125568736746,-0.141388578464281,-13.6333186565918,-0.103514567017555,-0.0802703499794006,0.11733403801918
2.92584620415934,-2.29125568736746,-0.141388578464281,-13.6333186565918,-0.103796355426311,-0.080503448843956,0.117374509572983
2.92584620415934,-2.29125568736746,-0.141388578464281,-13.6333186565918,-0.104078456759453,-0.0807368531823158,0.117414474487305
2.92584620415934,-2.29125568736746,-0.141388578464281,-13.6333186565918,-0.104360871016979,-0.0809705629944801,0.117453932762146
2.92584620415934,-2.29125568736746,-0.141388578464281,-13.6333186565918,-0.104643598198891,-0.0812045857310295,0.117492891848087
2.92584620415934,-2.29125568736746,-0.141388578464281,-13.6333186565918,-0.104926630854607,-0.0814389139413834,0.117531344294548
2.92584620415934,-2.29125568736746,-0.141388578464281,-13.6333186565918,-0.105209976434708,-0.0816735476255417,0.117569297552109
2.92584620415934,-2.29125568736746,-0.141388578464281,-13.6333186565918,-0.105493634939194,-0.0819084867835045,0.117606744170189
2.92584620415934,-2.29125568736746,-0.141388578464281,-13.6333186565918,-0.105777598917484,-0.0821437388658524,0.117643691599369
2.92584620415934,-2.29125568736746,-0.141388578464281,-13.6333186565918,-0.10606187582016,-0.0823792964220047,0.117680132389069
2.92584620415934,-2.29125568736746,-0.141388578464281,-13.6333186565918,-0.106346465647221,-0.0826151594519615,0.117716073989868
2.92584620415934,-2.29125568736746,-0.141388578464281,-13.6333186565918,-0.106631360948086,-0.0828513354063034,0.117751516401768
2.92584620415934,-2.29125568736746,-0.141388578464281,-13.6333186565918,-0.106916569173336,-0.0830878168344498,0.117786459624767
2.92584620415934,-2.29125568736746,-0.141388578464281,-13.6333186565918,-0.107202082872391,-0.0833246037364006,0.117820903658867
2.92584620415934,-2.29125568736746,-0.141388578464281,-13.6333186565918,-0.107487909495831,-0.0835616961121559,0.117854855954647
2.92584620415934,-2.29125568736746,-0.141388578464281,-13.6333186565918,-0.107774041593075,-0.0837990939617157,0.117888309061527
2.92584620415934,-2.29125568736746,-0.141388578464281,-13.6333186565918,-0.108060486614704,-0.0840368047356606,0.117921262979507
2.92584620415934,-2.29125568736746,-0.141388578464281,-13.6333186565918,-0.108347237110138,-0.0842748209834099,0.117953725159168
2.92584620415934,-2.29125568736746,-0.141388578464281,-13.6333186565918,-0.108634300529957,-0.0845131427049637,0.117985688149929
2.92584620415934,-2.29125568736746,-0.141388578464281,-13.6333186565918,-0.10892166942358,-0.084751769900322,0.11801715940237
2.92584620415934,-2.29125568736746,-0.141388578464281,-13.6333186565918,-0.109209351241589,-0.0849907100200653,0.118048138916492
2.92584620415934,-2.29125568736746,-0.141388578464281,-13.6333186565918,-0.109497338533401,-0.0852299556136131,0.118078626692295
2.92584620415934,-2.29125568736746,-0.141388578464281,-13.6333186565918,-0.109785638749599,-0.0854695066809654,0.118108622729778
2.92584620415934,-2.29125568736746,-0.141388578464281,-13.6333186565918,-0.110074244439602,-0.0857093632221222,0.118138127028942
2.92584620415934,-2.29125568736746,-0.141388578464281,-13.6333186565918,-0.110363155603409,-0.0859495252370834,0.118167139589787
2.92584620415934,-2.29125568736746,-0.141388578464281,-13.6333186565918,-0.110652379691601,-0.0861899927258492,0.118195660412312
2.92584620415934,-2.29125568736746,-0.141388578464281,-13.6333186565918,-0.110941909253597,-0.0864307731389999,0.118223696947098
2.92584620415934,-2.29125568736746,-0.141388578464281,-13.6333186565918,-0.111231744289398,-0.0866718590259552,0.118251241743565
2.92584620415934,-2.29125568736746,-0.141388578464281,-13.6333186565918,-0.111521892249584,-0.0869132503867149,0.118278302252293
2.92584620415934,-2.29125568736746,-0.141388578464281,-13.6333186565918,-0.111812345683575,-0.0871549472212791,0.118304871022701
2.92584620415934,-2.29125568736746,-0.141388578464281,-13.6333186565918,-0.11210310459137,-0.0873969495296478,0.118330955505371
2.92584620415934,-2.29125568736746,-0.141388578464281,-13.6333186565918,-0.112394168972969,-0.087639257311821,0.118356555700302
2.92584620415934,-2.29125568736746,-0.141388578464281,-13.6333186565918,-0.112685546278954,-0.0878818705677986,0.118381671607494
2.92584620415934,-2.29125568736746,-0.141388578464281,-13.6333186565918,-0.112977229058743,-0.0881247967481613,0.118406303226948
2.92584620415934,-2.29125568736746,-0.141388578464281,-13.6333186565918,-0.113269217312336,-0.0883680284023285,0.118430450558662
2.92584620415934,-2.29125568736746,-0.141388578464281,-13.6333186565918,-0.113561511039734,-0.0886115655303001,0.118454113602638
2.92584620415934,-2.29125568736746,-0.141388578464281,-13.6333186565918,-0.113854110240936,-0.0888554081320763,0.118477292358875
2.92584620415934,-2.29125568736746,-0.141388578464281,-13.6333186565918,-0.114147022366524,-0.0890995562076569,0.118499994277954
2.92584620415934,-2.29125568736746,-0.141388578464281,-13.6333186565918,-0.114440239965916,-0.0893440097570419,0.118522211909294
2.92584620415934,-2.29125568736746,-0.141388578464281,-13.6333186565918,-0.114733763039112,-0.0895887687802315,0.118543952703476
2.92584620415934,-2.29125568736746,-0.141388578464281,-13.6333186565918,-0.115027591586113,-0.0898338332772255,0.118565209209919
2.92584620415934,-2.29125568736746,-0.141388578464281,-13.6333186565918,-0.115321725606918,-0.090079203248024,0.118585988879204
2.92584620415934,-2.29125568736746,-0.141388578464281,-13.6333186565918,-0.115616165101528,-0.0903248861432076,0.11860629171133
2.92584620415934,-2.29125568736746,-0.141388578464281,-13.6333186565918,-0.115910910069942,-0.0905708745121956,0.118626117706299
2.92584620415934,-2.29125568736746,-0.141388578464281,-13.6333186565918,-0.116205960512161,-0.0908171683549881,0.118645466864109
2.92584620415934,-2.29125568736746,-0.141388578464281,-13.6333186565918,-0.116501316428185,-0.0910637676715851,0.118664339184761
2.92584620415934,-2.29125568736746,-0.141388578464281,-13.6333186565918,-0.116796977818012,-0.0913106724619865,0.118682742118835
2.92584620415934,-2.29125568736746,-0.141388578464281,-13.6333186565918,-0.117092944681644,-0.0915578827261925,0.118700668215752
2.92584620415934,-2.29125568736746,-0.141388578464281,-13.6333186565918,-0.117389217019081,-0.0918053984642029,0.11871811747551
2.92584620415934,-2.29125568736746,-0.141388578464281,-13.6333186565918,-0.117685794830322,-0.0920532196760178,0.11873509734869
2.92584620415934,-2.29125568736746,-0.141388578464281,-13.6333186565918,-0.117982678115368,-0.0923013463616371,0.118751600384712
2.92584620415934,-2.29125568736746,-0.141388578464281,-13.6333186565918,-0.118279866874218,-0.0925497785210609,0.118767634034157
2.92584620415934,-2.29125568736746,-0.141388578464281,-13.6333186565918,-0.118577361106873,-0.0927985161542892,0.118783198297024
2.92584620415934,-2.29125568736746,-0.141388578464281,-13.6333186565918,-0.118875153362751,-0.093047559261322,0.118798293173313
2.92584620415934,-2.29125568736746,-0.141388578464281,-13.6333186565918,-0.119173251092434,-0.0932969078421593,0.118812918663025
2.92584620415934,-2.29125568736746,-0.141388578464281,-13.6333186565918,-0.119471654295921,-0.093546561896801,0.118827074766159
2.92584620415934,-2.29125568736746,-0.141388578464281,-13.6333186565918,-0.119770362973213,-0.0937965214252472,0.118840761482716
2.92584620415934,-2.29125568736746,-0.141388578464281,-13.6333186565918,-0.12006937712431,-0.0940467864274979,0.118853978812695
2.92584620415934,-2.29125568736746,-0.141388578464281,-13.6333186565918,-0.12036868929863,-0.094297356903553,0.118866734206676
2.92584620415934,-2.29125568736746,-0.141388578464281,-13.6333186565918,-0.120668306946754,-0.0945482328534126,0.118879020214081
2.92584620415934,-2.29125568736746,-0.141388578464281,-13.6333186565918,-0.120968230068684,-0.0947994142770767,0.118890844285488
2.92584620415934,-2.29125568736746,-0.141388578464281,-13.6333186565918,-0.121268458664417,-0.0950509011745453,0.118902198970318
2.92584620415934,-2.29125568736746,-0.141388578464281,-13.6333186565918,-0.121568985283375,-0.0953026935458183,0.118913091719151
2.92584620415934,-2.29125568736746,-0.141388578464281,-13.6333186565918,-0.121869817376137,-0.0955547913908958,0.118923522531986
2.92584620415934,-2.29125568736746,-0.141388578464281,-13.6333186565918,-0.122170954942703,-0.0958071947097778,0.118933491408825
2.92584620415934,-2.29125568736746,-0.141388578464281,-13.6333186565918,-0.122472390532494,-0.0960599035024643,0.118942998349667
2.92584620415934,-2.29125568736746,-0.141388578464281,-13.6333186565918,-0.122774131596088,-0.0963129177689552,0.118952043354511
2.92584620415934,-2.29125568736746,-0.141388578464281,-13.6333186565918,-0.123076178133488,-0.0965662375092506,0.118960626423359
2.92584620415934,-2.29125568736746,-0.141388578464281,-13.6333186565918,-0.123378522694111,-0.0968198627233505,0.11896874755621
2.92584620415934,-2.29125568736746,-0.141388578464281,-13.6333186565918,-0.123681172728539,-0.0970737934112549,0.118976414203644
2.92584620415934,-2.29125568736746,-0.141388578464281,-13.6333186565918,-0.12398412078619,-0.0973280221223831,0.118983618915081
2.92584620415934,-2.29125568736746,-0.141388578464281,-13.6333186565918,-0.124287374317646,-0.0975825563073158,0.118990369141102
2.92584620415934,-2.29125568736746,-0.141388578464281,-13.6333186565918,-0.124590925872326,-0.097837395966053,0.118996657431126
2.92584620415934,-2.29125568736746,-0.141388578464281,-13.6333186565918,-0.12489478290081,-0.0980925410985947,0.119002491235733
2.92584620415934,-2.29125568736746,-0.141388578464281,-13.6333186565918,-0.125198945403099,-0.0983479917049408,0.119007870554924
2.92584620415934,-2.29125568736746,-0.141388578464281,-13.6333186565918,-0.125503405928612,-0.0986037477850914,0.119012795388699
2.92584620415934,-2.29125568736746,-0.141388578464281,-13.6333186565918,-0.125808164477348,-0.0988598093390465,0.119017265737057
2.92584620415934,-2.29125568736746,-0.141388578464281,-13.6333186565918,-0.126113221049309,-0.099116176366806,0.119021281599998
2.92584620415934,-2.29125568736746,-0.141388578464281,-13.6333186565918,-0.126418590545654,-0.0993728488683701,0.119024842977524
2.92584620415934,-2.29125568736746,-0.141388578464281,-13.6333186565918,-0.126724258065224,-0.099629819393158,0.119027957320213
2.92584620415934,-2.29125568736746,-0.141388578464281,-13.6333186565918,-0.127030223608017,-0.0998870953917503,0.119030617177486
2.92584620415934,-2.29125568736746,-0.141388578464281,-13.6333186565918,-0.127336487174034,-0.100144676864147,0.119032822549343
2.92584620415934,-2.29125568736746,-0.141388578464281,-13.6333186565918,-0.127643048763275,-0.100402563810349,0.119034580886364
2.92584620415934,-2.29125568736746,-0.141388578464281,-13.6333186565918,-0.12794990837574,-0.100660756230354,0.119035892188549
2.92584620415934,-2.29125568736746,-0.141388578464281,-13.6333186565918,-0.12825708091259,-0.100919254124165,0.119036749005318
2.92584620415934,-2.29125568736746,-0.141388578464281,-13.6333186565918,-0.128564551472664,-0.101178057491779,0.119037158787251
2.92584620415934,-2.29125568736746,-0.141388578464281,-13.6333186565918,-0.128872320055962,-0.101437158882618,0.119037121534348
2.92584620415934,-2.29125568736746,-0.141388578464281,-13.6333186565918,-0.129180386662483,-0.101696565747261,0.119036637246609
2.92584620415934,-2.29125568736746,-0.141388578464281,-13.6333186565918,-0.129488751292229,-0.101956278085709,0.119035705924034
2.92584620415934,-2.29125568736746,-0.141388578464281,-13.6333186565918,-0.129797413945198,-0.102216295897961,0.119034335017204
2.92584620415934,-2.29125568736746,-0.141388578464281,-13.6333186565918,-0.130106374621391,-0.102476619184017,0.119032517075539
2.92584620415934,-2.29125568736746,-0.141388578464281,-13.6333186565918,-0.130415633320808,-0.102737240493298,0.119030252099037
2.92584620415934,-2.29125568736746,-0.141388578464281,-13.6333186565918,-0.130725204944611,-0.102998167276382,0.11902754753828
2.92584620415934,-2.29125568736746,-0.141388578464281,-13.6333186565918,-0.131035074591637,-0.103259399533272,0.119024395942688
2.92584620415934,-2.29125568736746,-0.141388578464281,-13.6333186565918,-0.131345242261887,-0.103520937263966,0.11902080476284
2.92584620415934,-2.29125568736746,-0.141388578464281,-13.6333186565918,-0.13165570795536,-0.103782780468464,0.119016773998737
2.92584620415934,-2.29125568736746,-0.141388578464281,-13.6333186565918,-0.131966471672058,-0.104044921696186,0.119012303650379
2.92584620415934,-2.29125568736746,-0.141388578464281,-13.6333186565918,-0.13227753341198,-0.104307368397713,0.119007393717766
2.92584620415934,-2.29125568736746,-0.141388578464281,-13.6333186565918,-0.132588893175125,-0.104570120573044,0.119002044200897
2.92584620415934,-2.29125568736746,-0.141388578464281,-13.6333186565918,-0.132900550961494,-0.104833178222179,0.118996255099773
2.92584620415934,-2.29125568736746,-0.141388578464281,-13.6333186565918,-0.133212506771088,-0.105096533894539,0.118990026414394
2.92584620415934,-2.29125568736746,-0.141388578464281,-13.6333186565918,-0.133524760603905,-0.105360195040703,0.11898335814476
2.92584620415934,-2.29125568736746,-0.141388578464281,-13.6333186565918,-0.133837312459946,-0.105624161660671,0.118976257741451
2.92584620415934,-2.29125568736746,-0.141388578464281,-13.6333186565918,-0.134150162339211,-0.105888433754444,0.118968717753887
2.92584620415934,-2.29125568736746,-0.141388578464281,-13.6333186565918,-0.134463310241699,-0.106153003871441,0.118960745632648
2.92584620415934,-2.29125568736746,-0.141388578464281,-13.6333186565918,-0.134776756167412,-0.106417879462242,0.118952333927155
2.92584620415934,-2.29125568736746,-0.141388578464281,-13.6333186565918,-0.135090500116348,-0.106683060526848,0.118943490087986
2.92584620415934,-2.29125568736746,-0.141388578464281,-13.6333186565918,-0.135404542088509,-0.106948539614677,0.118934214115143
2.92584620415934,-2.29125568736746,-0.141388578464281,-13.6333186565918,-0.135718882083893,-0.107214324176311,0.118924506008625
2.92584620415934,-2.29125568736746,-0.141388578464281,-13.6333186565918,-0.136033520102501,-0.10748041421175,0.118914365768433
2.92584620415934,-2.29125568736746,-0.141388578464281,-13.6333186565918,-0.136348456144333,-0.107746802270412,0.118903793394566
2.92584620415934,-2.29125568736746,-0.141388578464281,-13.6333186565918,-0.136663675308228,-0.108013495802879,0.118892788887024
2.92584620415934,-2.29125568736746,-0.141388578464281,-13.6333186565918,-0.136979192495346,-0.108280494809151,0.118881352245808
2.92584620415934,-2.29125568736746,-0.141388578464281,-13.6333186565918,-0.137295007705688,-0.108547791838646,0.118869490921497
2.92584620415934,-2.29125568736746,-0.141388578464281,-13.6333186565918,-0.137611120939255,-0.108815394341946,0.118857197463512
2.92584620415934,-2.29125568736746,-0.141388578464281,-13.6333186565918,-0.137927532196045,-0.10908330231905,0.118844479322433
2.92584620415934,-2.29125568736746,-0.141388578464281,-13.6333186565918,-0.138244241476059,-0.109351508319378,0.11883132904768
2.92584620415934,-2.29125568736746,-0.141388578464281,-13.6333186565918,-0.138561248779297,-0.10962001979351,0.118817754089832
2.92584620415934,-2.29125568736746,-0.141388578464281,-13.6333186565918,-0.138878554105759,-0.109888836741447,0.118803754448891
2.92584620415934,-2.29125568736746,-0.141388578464281,-13.6333186565918,-0.139196142554283,-0.110157951712608,0.118789330124855
2.92584620415934,-2.29125568736746,-0.141388578464281,-13.6333186565918,-0.139514029026031,-0.110427372157574,0.118774481117725
2.92584620415934,-2.29125568736746,-0.141388578464281,-13.6333186565918,-0.139832213521004,-0.110697098076344,0.118759207427502
2.92584620415934,-2.29125568736746,-0.141388578464281,-13.6333186565918,-0.1401506960392,-0.110967122018337,0.118743509054184
2.92584620415934,-2.29125568736746,-0.141388578464281,-13.6333186565918,-0.14046947658062,-0.111237451434135,0.118727385997772
2.92584620415934,-2.29125568736746,-0.141388578464281,-13.6333186565918,-0.140788555145264,-0.111508078873158,0.118710845708847
2.92584620415934,-2.29125568736746,-0.141388578464281,-13.6333186565918,-0.14110791683197,-0.111779011785984,0.118693880736828
2.92584620415934,-2.29125568736746,-0.141388578464281,-13.6333186565918,-0.141427576541901,-0.112050250172615,0.118676498532295
2.92584620415934,-2.29125568736746,-0.141388578464281,-13.6333186565918,-0.141747534275055,-0.11232178658247,0.118658691644669
2.92584620415934,-2.29125568736746,-0.141388578464281,-13.6333186565918,-0.142067790031433,-0.112593628466129,0.118640467524529
2.92584620415934,-2.29125568736746,-0.141388578464281,-13.6333186565918,-0.142388328909874,-0.112865768373013,0.118621826171875
2.92584620415934,-2.29125568736746,-0.141388578464281,-13.6333186565918,-0.142709165811539,-0.1131382137537,0.118602767586708
2.92584620415934,-2.29125568736746,-0.141388578464281,-13.6333186565918,-0.143030300736427,-0.113410957157612,0.118583291769028
2.92584620415934,-2.29125568736746,-0.141388578464281,-13.6333186565918,-0.14335173368454,-0.113684006035328,0.118563398718834
2.92584620415934,-2.29125568736746,-0.141388578464281,-13.6333186565918,-0.143673449754715,-0.113957352936268,0.118543088436127
2.92584620415934,-2.29125568736746,-0.141388578464281,-13.6333186565918,-0.143995463848114,-0.114231005311012,0.118522360920906
2.92584620415934,-2.29125568736746,-0.141388578464281,-13.6333186565918,-0.144317775964737,-0.114504955708981,0.118501223623753
2.92584620415934,-2.29125568736746,-0.141388578464281,-13.6333186565918,-0.144640371203423,-0.114779211580753,0.118479669094086
2.92584620415934,-2.29125568736746,-0.141388578464281,-13.6333186565918,-0.144963264465332,-0.115053772926331,0.118457704782486
2.92584620415934,-2.29125568736746,-0.141388578464281,-13.6333186565918,-0.145286455750465,-0.115328632295132,0.118435323238373
2.92584620415934,-2.29125568736746,-0.141388578464281,-13.6333186565918,-0.145609930157661,-0.115603797137737,0.118412531912327
2.92584620415934,-2.29125568736746,-0.141388578464281,-13.6333186565918,-0.145933702588081,-0.115879260003567,0.118389330804348
2.92584620415934,-2.29125568736746,-0.141388578464281,-13.6333186565918,-0.146257773041725,-0.116155028343201,0.118365712463856
2.92584620415934,-2.29125568736746,-0.141388578464281,-13.6333186565918,-0.146582126617432,-0.116431094706059,0.118341684341431
2.92584620415934,-2.29125568736746,-0.141388578464281,-13.6333186565918,-0.146906778216362,-0.11670745909214,0.118317246437073
2.92584620415934,-2.29125568736746,-0.141388578464281,-13.6333186565918,-0.147231727838516,-0.116984128952026,0.118292406201363
2.92584620415934,-2.29125568736746,-0.141388578464281,-13.6333186565918,-0.147556960582733,-0.117261096835136,0.11826715618372
2.92584620415934,-2.29125568736746,-0.141388578464281,-13.6333186565918,-0.147882491350174,-0.117538370192051,0.118241496384144
2.92584620415934,-2.29125568736746,-0.141388578464281,-13.6333186565918,-0.148208305239677,-0.117815941572189,0.118215426802635
2.92584620415934,-2.29125568736746,-0.141388578464281,-13.6333186565918,-0.148534417152405,-0.118093818426132,0.118188954889774
2.92584620415934,-2.29125568736746,-0.141388578464281,-13.6333186565918,-0.148860827088356,-0.118371993303299,0.118162073194981
2.92584620415934,-2.29125568736746,-0.141388578464281,-13.6333186565918,-0.14918752014637,-0.11865047365427,0.118134789168835
2.92584620415934,-2.29125568736746,-0.141388578464281,-13.6333186565918,-0.149514511227608,-0.118929252028465,0.118107102811337
2.92584620415934,-2.29125568736746,-0.141388578464281,-13.6333186565918,-0.149841785430908,-0.119208328425884,0.118079014122486
2.92584620415934,-2.29125568736746,-0.141388578464281,-13.6333186565918,-0.150169357657433,-0.119487710297108,0.118050523102283
2.92584620415934,-2.29125568736746,-0.141388578464281,-13.6333186565918,-0.15049721300602,-0.119767390191555,0.118021629750729
2.92584620415934,-2.29125568736746,-0.141388578464281,-13.6333186565918,-0.150825366377831,-0.120047375559807,0.117992334067822
2.92584620415934,-2.29125568736746,-0.141388578464281,-13.6333186565918,-0.151153802871704,-0.120327658951283,0.117962636053562
2.92584620415934,-2.29125568736746,-0.141388578464281,-13.6333186565918,-0.151482537388802,-0.120608240365982,0.117932535707951
2.92584620415934,-2.29125568736746,-0.141388578464281,-13.6333186565918,-0.151811555027962,-0.120889127254486,0.117902033030987
2.92584620415934,-2.29125568736746,-0.141388578464281,-13.6333186565918,-0.152140870690346,-0.121170312166214,0.117871135473251
2.92584620415934,-2.29125568736746,-0.141388578464281,-13.6333186565918,-0.152470469474792,-0.121451802551746,0.117839835584164
2.92584620415934,-2.29125568736746,-0.141388578464281,-13.6333186565918,-0.152800366282463,-0.121733590960503,0.117808140814304
2.92584620415934,-2.29125568736746,-0.141388578464281,-13.6333186565918,-0.153130546212196,-0.122015677392483,0.117776051163673
2.92584620415934,-2.29125568736746,-0.141388578464281,-13.6333186565918,-0.153461024165154,-0.122298069298267,0.11774355918169
2.92584620415934,-2.29125568736746,-0.141388578464281,-13.6333186565918,-0.153791785240173,-0.122580759227276,0.117710672318935
2.92584620415934,-2.29125568736746,-0.141388578464281,-13.6333186565918,-0.154122844338417,-0.122863747179508,0.117677390575409
2.92584620415934,-2.29125568736746,-0.141388578464281,-13.6333186565918,-0.154454186558723,-0.123147040605545,0.117643713951111
2.92584620415934,-2.29125568736746,-0.141388578464281,-13.6333186565918,-0.154785811901093,-0.123430632054806,0.117609642446041
2.92584620415934,-2.29125568736746,-0.141388578464281,-13.6333186565918,-0.155117735266685,-0.12371452152729,0.11757518351078
2.92584620415934,-2.29125568736746,-0.141388578464281,-13.6333186565918,-0.155449941754341,-0.123998716473579,0.117540329694748
2.92584620415934,-2.29125568736746,-0.141388578464281,-13.6333186565918,-0.155782446265221,-0.124283209443092,0.117505080997944
2.92584620415934,-2.29125568736746,-0.141388578464281,-13.6333186565918,-0.156115233898163,-0.124568000435829,0.117469444870949
2.92584620415934,-2.29125568736746,-0.141388578464281,-13.6333186565918,-0.156448304653168,-0.12485308945179,0.117433413863182
2.92584620415934,-2.29125568736746,-0.141388578464281,-13.6333186565918,-0.156781673431396,-0.125138476490974,0.117396995425224
2.92584620415934,-2.29125568736746,-0.141388578464281,-13.6333186565918,-0.157115325331688,-0.125424176454544,0.117360189557076
2.92584620415934,-2.29125568736746,-0.141388578464281,-13.6333186565918,-0.157449260354042,-0.125710174441338,0.117322996258736
2.92584620415934,-2.29125568736746,-0.141388578464281,-13.6333186565918,-0.15778349339962,-0.125996470451355,0.117285408079624
2.92584620415934,-2.29125568736746,-0.141388578464281,-13.6333186565918,-0.158118009567261,-0.126283064484596,0.117247432470322
2.92584620415934,-2.29125568736746,-0.141388578464281,-13.6333186565918,-0.158452808856964,-0.126569956541061,0.117209069430828
2.92584620415934,-2.29125568736746,-0.141388578464281,-13.6333186565918,-0.158787906169891,-0.12685714662075,0.117170326411724
2.92584620415934,-2.29125568736746,-0.141388578464281,-13.6333186565918,-0.159123286604881,-0.127144634723663,0.117131195962429
2.92584620415934,-2.29125568736746,-0.141388578464281,-13.6333186565918,-0.159458950161934,-0.1274324208498,0.117091678082943
2.92584620415934,-2.29125568736746,-0.141388578464281,-13.6333186565918,-0.15979491174221,-0.127720504999161,0.117051780223846
2.92584620415934,-2.29125568736746,-0.141388578464281,-13.6333186565918,-0.16013115644455,-0.128008902072906,0.117011494934559
2.92584620415934,-2.29125568736746,-0.141388578464281,-13.6333186565918,-0.160467684268951,-0.128297597169876,0.116970829665661
2.92584620415934,-2.29125568736746,-0.141388578464281,-13.6333186565918,-0.160804495215416,-0.12858659029007,0.116929776966572
2.92584620415934,-2.29125568736746,-0.141388578464281,-13.6333186565918,-0.161141604185104,-0.128875881433487,0.116888344287872
2.92584620415934,-2.29125568736746,-0.141388578464281,-13.6333186565918,-0.161478996276855,-0.129165470600128,0.116846531629562
2.92584620415934,-2.29125568736746,-0.141388578464281,-13.6333186565918,-0.161816671490669,-0.129455357789993,0.116804338991642
2.92584620415934,-2.29125568736746,-0.141388578464281,-13.6333186565918,-0.162154629826546,-0.129745543003082,0.116761766374111
2.92584620415934,-2.29125568736746,-0.141388578464281,-13.6333186565918,-0.162492886185646,-0.130036026239395,0.11671881377697
2.92584620415934,-2.29125568736746,-0.141388578464281,-13.6333186565918,-0.162831425666809,-0.130326807498932,0.116675481200218
2.92584620415934,-2.29125568736746,-0.141388578464281,-13.6333186565918,-0.163170248270035,-0.130617886781693,0.116631768643856
2.92584620415934,-2.29125568736746,-0.141388578464281,-13.6333186565918,-0.163509353995323,-0.130909264087677,0.116587683558464
2.92584620415934,-2.29125568736746,-0.141388578464281,-13.6333186565918,-0.163848742842674,-0.131200954318047,0.116543218493462
2.92584620415934,-2.29125568736746,-0.141388578464281,-13.6333186565918,-0.164188429713249,-0.13149294257164,0.116498380899429
2.92584620415934,-2.29125568736746,-0.141388578464281,-13.6333186565918,-0.164528399705887,-0.131785228848457,0.116453163325787
2.92584620415934,-2.29125568736746,-0.141388578464281,-13.6333186565918,-0.164868652820587,-0.132077813148499,0.116407573223114
2.92584620415934,-2.29125568736746,-0.141388578464281,-13.6333186565918,-0.16520918905735,-0.132370695471764,0.116361610591412
2.92584620415934,-2.29125568736746,-0.141388578464281,-13.6333186565918,-0.165518760681152,-0.132652968168259,0.116269499063492
2.92584620415934,-2.29125568736746,-0.141388578464281,-13.6333186565918,-0.165766134858131,-0.132913753390312,0.116085454821587
2.92584620415934,-2.29125568736746,-0.141388578464281,-13.6333186565918,-0.165950581431389,-0.133127599954605,0.115827649831772
2.92584620415934,-2.29125568736746,-0.141388578464281,-13.6333186565918,-0.166071370244026,-0.133269086480141,0.115514248609543
2.92584620415934,-2.29125568736746,-0.141388578464281,-13.6333186565918,-0.166128501296043,-0.133338212966919,0.11514525860548
2.92584620415934,-2.29125568736746,-0.141388578464281,-13.6333186565918,-0.16612197458744,-0.133334964513779,0.114720672369003
2.92584620415934,-2.29125568736746,-0.141388578464281,-13.6333186565918,-0.166051775217056,-0.133259356021881,0.114240497350693
2.92584620415934,-2.29125568736746,-0.141388578464281,-13.6333186565918,-0.165945529937744,-0.133129552006721,0.113656044006348
2.92584620415934,-2.29125568736746,-0.141388578464281,-13.6333186565918,-0.165830850601196,-0.132963716983795,0.112918630242348
2.92584620415934,-2.29125568736746,-0.141388578464281,-13.6333186565918,-0.165707737207413,-0.132761850953102,0.112028256058693
2.92584620415934,-2.29125568736746,-0.141388578464281,-13.6333186565918,-0.165576189756393,-0.132523953914642,0.110984928905964
2.92584620415934,-2.29125568736746,-0.141388578464281,-13.6333186565918,-0.165436208248138,-0.132250025868416,0.10978864133358
2.92584620415934,-2.29125568736746,-0.141388578464281,-13.6333186565918,-0.165285617113113,-0.131918981671333,0.108518600463867
2.92584620415934,-2.29125568736746,-0.141388578464281,-13.6333186565918,-0.165122225880623,-0.131509765982628,0.107254005968571
2.92584620415934,-2.29125568736746,-0.141388578464281,-13.6333186565918,-0.164946034550667,-0.1310223788023,0.105994857847691
2.92584620415934,-2.29125568736746,-0.141388578464281,-13.6333186565918,-0.164757043123245,-0.130456805229187,0.104741163551807
2.92584620415934,-2.29125568736746,-0.141388578464281,-13.6333186565918,-0.164555266499519,-0.129813060164452,0.103492915630341
2.92584620415934,-2.29125568736746,-0.141388578464281,-13.6333186565918,-0.164351582527161,-0.12911656498909,0.102245032787323
2.92584620415934,-2.29125568736746,-0.141388578464281,-13.6333186565918,-0.164156898856163,-0.12839275598526,0.100992426276207
2.92584620415934,-2.29125568736746,-0.141388578464281,-13.6333186565918,-0.163971230387688,-0.127641633152962,0.0997350960969925
2.92584620415934,-2.29125568736746,-0.141388578464281,-13.6333186565918,-0.163794562220573,-0.126863196492195,0.0984730497002602
2.92584620415934,-2.29125568736746,-0.141388578464281,-13.6333186565918,-0.163658142089844,-0.126068353652954,0.0972520560026169
2.92584620415934,-2.29125568736746,-0.141388578464281,-13.6333186565918,-0.163574308156967,-0.125254184007645,0.096128799021244
2.92584620415934,-2.29125568736746,-0.141388578464281,-13.6333186565918,-0.16352491080761,-0.124432317912579,0.0950960069894791
2.92584620415934,-2.29125568736746,-0.141388578464281,-13.6333186565918,-0.163510680198669,-0.123628191649914,0.0941355228424072
2.92584620415934,-2.29125568736746,-0.141388578464281,-13.6333186565918,-0.163531601428986,-0.12284179776907,0.0932473391294479
2.92584620415934,-2.29125568736746,-0.141388578464281,-13.6333186565918,-0.163587689399719,-0.122073143720627,0.0924314633011818
2.92584620415934,-2.29125568736746,-0.141388578464281,-13.6333186565918,-0.163697093725204,-0.121304057538509,0.0916900709271431
2.92584620415934,-2.29125568736746,-0.141388578464281,-13.6333186565918,-0.163850381970406,-0.120498210191727,0.091074027121067
2.92584620415934,-2.29125568736746,-0.141388578464281,-13.6333186565918,-0.16401994228363,-0.119637437164783,0.0906320214271545
2.92584620415934,-2.29125568736746,-0.141388578464281,-13.6333186565918,-0.164205759763718,-0.11872173845768,0.090364046394825
2.92584620415934,-2.29125568736746,-0.141388578464281,-13.6333186565918,-0.164407849311829,-0.117751114070415,0.0902701020240784
2.92584620415934,-2.29125568736746,-0.141388578464281,-13.6333186565918,-0.164625480771065,-0.116722658276558,0.0903385728597641
2.92584620415934,-2.29125568736746,-0.141388578464281,-13.6333186565918,-0.164860099554062,-0.115654535591602,0.0904786214232445
2.92584620415934,-2.29125568736746,-0.141388578464281,-13.6333186565918,-0.165113896131516,-0.114567816257477,0.0906110554933548
2.92584620415934,-2.29125568736746,-0.141388578464281,-13.6333186565918,-0.165386855602264,-0.113462507724762,0.0907358676195145
2.92584620415934,-2.29125568736746,-0.141388578464281,-13.6333186565918,-0.16567899286747,-0.112338602542877,0.0908530652523041
2.92584620415934,-2.29125568736746,-0.141388578464281,-13.6333186565918,-0.165963411331177,-0.111204817891121,0.0909880772233009
2.92584620415934,-2.29125568736746,-0.141388578464281,-13.6333186565918,-0.166202336549759,-0.110044449567795,0.09117142111063
2.92584620415934,-2.29125568736746,-0.141388578464281,-13.6333186565918,-0.166384860873222,-0.108832061290741,0.0914081856608391
2.92584620415934,-2.29125568736746,-0.141388578464281,-13.6333186565918,-0.166510999202728,-0.107567653059959,0.0916983708739281
2.92584620415934,-2.29125568736746,-0.141388578464281,-13.6333186565918,-0.166580736637115,-0.10625122487545,0.092041976749897
2.92584620415934,-2.29125568736746,-0.141388578464281,-13.6333186565918,-0.166608616709709,-0.104876965284348,0.0924448221921921
2.92584620415934,-2.29125568736746,-0.141388578464281,-13.6333186565918,-0.166628047823906,-0.103452861309052,0.0929018184542656
2.92584620415934,-2.29125568736746,-0.141388578464281,-13.6333186565918,-0.166657939553261,-0.101992726325989,0.0934020653367043
2.92584620415934,-2.29125568736746,-0.141388578464281,-13.6333186565918,-0.166698276996613,-0.100496552884579,0.0939455628395081
2.92584620415934,-2.29125568736746,-0.141388578464281,-13.6333186565918,-0.166749060153961,-0.0989643484354019,0.094532310962677
2.92584620415934,-2.29125568736746,-0.141388578464281,-13.6333186565918,-0.16676452755928,-0.0973924770951271,0.0951761156320572
2.92584620415934,-2.29125568736746,-0.141388578464281,-13.6333186565918,-0.166680723428726,-0.0957954674959183,0.0958886072039604
2.92584620415934,-2.29125568736746,-0.141388578464281,-13.6333186565918,-0.166479483246803,-0.0941914916038513,0.0966676026582718
2.92584620415934,-2.29125568736746,-0.141388578464281,-13.6333186565918,-0.166160807013512,-0.0925805419683456,0.0975131019949913
2.92584620415934,-2.29125568736746,-0.141388578464281,-13.6333186565918,-0.165724694728851,-0.0909626260399818,0.0984251126646996
2.92584620415934,-2.29125568736746,-0.141388578464281,-13.6333186565918,-0.165189310908318,-0.0893181189894676,0.0993905514478683
2.92584620415934,-2.29125568736746,-0.141388578464281,-13.6333186565918,-0.164573550224304,-0.0876303091645241,0.100407965481281
2.92584620415934,-2.29125568736746,-0.141388578464281,-13.6333186565918,-0.16387814283371,-0.085902102291584,0.10148898512125
2.92584620415934,-2.29125568736746,-0.141388578464281,-13.6333186565918,-0.163103088736534,-0.084133505821228,0.102633602917194
2.92584620415934,-2.29125568736746,-0.141388578464281,-13.6333186565918,-0.162248387932777,-0.0823245123028755,0.103841826319695
2.92584620415934,-2.29125568736746,-0.141388578464281,-13.6333186565918,-0.161312580108643,-0.0805049166083336,0.105067878961563
2.92584620415934,-2.29125568736746,-0.141388578464281,-13.6333186565918,-0.160321101546288,-0.0786957889795303,0.106240548193455
2.92584620415934,-2.29125568736746,-0.141388578464281,-13.6333186565918,-0.159300833940506,-0.0768884047865868,0.107334405183792
2.92584620415934,-2.29125568736746,-0.141388578464281,-13.6333186565918,-0.158251777291298,-0.0750827714800835,0.108349449932575
2.92584620415934,-2.29125568736746,-0.141388578464281,-13.6333186565918,-0.157173931598663,-0.0732788890600204,0.109285682439804
2.92584620415934,-2.29125568736746,-0.141388578464281,-13.6333186565918,-0.156071662902832,-0.0714753046631813,0.110135115683079
2.92584620415934,-2.29125568736746,-0.141388578464281,-13.6333186565918,-0.154934793710709,-0.0696763694286346,0.110883936285973
2.92584620415934,-2.29125568736746,-0.141388578464281,-13.6333186565918,-0.153748780488968,-0.0678879022598267,0.111526340246201
2.92584620415934,-2.29125568736746,-0.141388578464281,-13.6333186565918,-0.152513638138771,-0.0661099031567574,0.112062320113182
2.92584620415934,-2.29125568736746,-0.141388578464281,-13.6333186565918,-0.151229366660118,-0.0643423795700073,0.112491883337498
2.92584620415934,-2.29125568736746,-0.141388578464281,-13.6333186565918,-0.149857446551323,-0.062615841627121,0.112873882055283
2.92584620415934,-2.29125568736746,-0.141388578464281,-13.6333186565918,-0.148405149579048,-0.0609644390642643,0.113253369927406
2.92584620415934,-2.29125568736746,-0.141388578464281,-13.6333186565918,-0.146918252110481,-0.0593918040394783,0.113616541028023
2.92584620415934,-2.29125568736746,-0.141388578464281,-13.6333186565918,-0.145396754145622,-0.0578979402780533,0.113963395357132
2.92584620415934,-2.29125568736746,-0.141388578464281,-13.6333186565918,-0.143840655684471,-0.0564828477799892,0.114293932914734
2.92584620415934,-2.29125568736746,-0.141388578464281,-13.6333186565918,-0.142297178506851,-0.0551305375993252,0.114580541849136
2.92584620415934,-2.29125568736746,-0.141388578464281,-13.6333186565918,-0.140795394778252,-0.0538446456193924,0.114808693528175
2.92584620415934,-2.29125568736746,-0.141388578464281,-13.6333186565918,-0.139317139983177,-0.0526447892189026,0.114991471171379
2.92584620415934,-2.29125568736746,-0.141388578464281,-13.6333186565918,-0.137862414121628,-0.0515309683978558,0.115128867328167
2.92584620415934,-2.29125568736746,-0.141388578464281,-13.6333186565918,-0.136431217193604,-0.0505031831562519,0.11522088944912
2.92584620415934,-2.29125568736746,-0.141388578464281,-13.6333186565918,-0.135005369782448,-0.0495519898831844,0.115261718630791
2.92584620415934,-2.29125568736746,-0.141388578464281,-13.6333186565918,-0.133568182587624,-0.0486381500959396,0.115291319787502
2.92584620415934,-2.29125568736746,-0.141388578464281,-13.6333186565918,-0.132121086120605,-0.0477318689227104,0.115355476737022
2.92584620415934,-2.29125568736746,-0.141388578464281,-13.6333186565918,-0.130664095282555,-0.0468331500887871,0.115454189479351
2.92584620415934,-2.29125568736746,-0.141388578464281,-13.6333186565918,-0.129197210073471,-0.0459419898688793,0.115587450563908
2.92584620415934,-2.29125568736746,-0.141388578464281,-13.6333186565918,-0.127733498811722,-0.0450511239469051,0.115762531757355
2.92584620415934,-2.29125568736746,-0.141388578464281,-13.6333186565918,-0.126281693577766,-0.0441547408699989,0.115994699299335
2.92584620415934,-2.29125568736746,-0.141388578464281,-13.6333186565918,-0.124837420880795,-0.0432542935013771,0.11629194021225
2.92584620415934,-2.29125568736746,-0.141388578464281,-13.6333186565918,-0.123400688171387,-0.0423497781157494,0.116654254496098
2.92584620415934,-2.29125568736746,-0.141388578464281,-13.6333186565918,-0.121971495449543,-0.041441198438406,0.117081642150879
2.92584620415934,-2.29125568736746,-0.141388578464281,-13.6333186565918,-0.120578184723854,-0.0405525304377079,0.117521062493324
2.92584620415934,-2.29125568736746,-0.141388578464281,-13.6333186565918,-0.119287602603436,-0.0396772362291813,0.117860615253448
2.92584620415934,-2.29125568736746,-0.141388578464281,-13.6333186565918,-0.118138253688812,-0.0387847982347012,0.118041440844536
2.92584620415934,-2.29125568736746,-0.141388578464281,-13.6333186565918,-0.117130145430565,-0.0378752164542675,0.118063546717167
2.92584620415934,-2.29125568736746,-0.141388578464281,-13.6333186565918,-0.116263270378113,-0.0369484908878803,0.117926932871342
2.92584620415934,-2.29125568736746,-0.141388578464281,-13.6333186565918,-0.115533277392387,-0.0360336825251579,0.11770498752594
2.92584620415934,-2.29125568736746,-0.141388578464281,-13.6333186565918,-0.114888571202755,-0.0351758450269699,0.117498710751534
2.92584620415934,-2.29125568736746,-0.141388578464281,-13.6333186565918,-0.114281922578812,-0.034390963613987,0.117335714399815
2.92584620415934,-2.29125568736746,-0.141388578464281,-13.6333186565918,-0.113713324069977,-0.0336790382862091,0.117215998470783
2.92584620415934,-2.29125568736746,-0.141388578464281,-13.6333186565918,-0.113182783126831,-0.0330400690436363,0.117139562964439
2.92584620415934,-2.29125568736746,-0.141388578464281,-13.6333186565918,-0.112683035433292,-0.0324028469622135,0.117048285901546
2.92584620415934,-2.29125568736746,-0.141388578464281,-13.6333186565918,-0.112224973738194,-0.0317056067287922,0.116889841854572
2.92584620415934,-2.29125568736746,-0.141388578464281,-13.6333186565918,-0.11182677000761,-0.0309577975422144,0.116670049726963
2.92584620415934,-2.29125568736746,-0.141388578464281,-13.6333186565918,-0.111488416790962,-0.030159417539835,0.116388909518719
2.92584620415934,-2.29125568736746,-0.141388578464281,-13.6333186565918,-0.11120992153883,-0.0293104685842991,0.116046421229839
2.92584620415934,-2.29125568736746,-0.141388578464281,-13.6333186565918,-0.111000724136829,-0.0284312944859266,0.115699984133244
2.92584620415934,-2.29125568736746,-0.141388578464281,-13.6333186565918,-0.11085719615221,-0.0275495070964098,0.115399740636349
2.92584620415934,-2.29125568736746,-0.141388578464281,-13.6333186565918,-0.110766254365444,-0.0266723725944757,0.115138426423073
2.92584620415934,-2.29125568736746,-0.141388578464281,-13.6333186565918,-0.110727898776531,-0.0257998909801245,0.114916041493416
2.92584620415934,-2.29125568736746,-0.141388578464281,-13.6333186565918,-0.110742136836052,-0.024932062253356,0.114732578396797
2.92584620415934,-2.29125568736746,-0.141388578464281,-13.6333186565918,-0.110785707831383,-0.0240565352141857,0.114588774740696
2.92584620415934,-2.29125568736746,-0.141388578464281,-13.6333186565918,-0.110807023942471,-0.0231369771063328,0.1145383939147
2.92584620415934,-2.29125568736746,-0.141388578464281,-13.6333186565918,-0.110777743160725,-0.0221494100987911,0.114634484052658
2.92584620415934,-2.29125568736746,-0.141388578464281,-13.6333186565918,-0.110697872936726,-0.0210938323289156,0.114877045154572
2.92584620415934,-2.29125568736746,-0.141388578464281,-13.6333186565918,-0.110567405819893,-0.0199702456593513,0.11526607722044
2.92584620415934,-2.29125568736746,-0.141388578464281,-13.6333186565918,-0.110384166240692,-0.0187735632061958,0.11579068005085
2.92584620415934,-2.29125568736746,-0.141388578464281,-13.6333186565918,-0.110150337219238,-0.0174696333706379,0.116366565227509
2.92584620415934,-2.29125568736746,-0.141388578464281,-13.6333186565918,-0.1098702698946,-0.0160293914377689,0.116920351982117
2.92584620415934,-2.29125568736746,-0.141388578464281,-13.6333186565918,-0.109543971717358,-0.0144528383389115,0.117452032864094
2.92584620415934,-2.29125568736746,-0.141388578464281,-13.6333186565918,-0.109171442687511,-0.0127399731427431,0.11796161532402
2.92584620415934,-2.29125568736746,-0.141388578464281,-13.6333186565918,-0.1087446808815,-0.010898788459599,0.118437469005585
2.92584620415934,-2.29125568736746,-0.141388578464281,-13.6333186565918,-0.108262971043587,-0.00900848582386971,0.118926100432873
2.92584620415934,-2.29125568736746,-0.141388578464281,-13.6333186565918,-0.107733570039272,-0.00714027462527156,0.119485639035702
2.92584620415934,-2.29125568736746,-0.141388578464281,-13.6333186565918,-0.107156477868557,-0.00529415439814329,0.120116084814072
2.92584620415934,-2.29125568736746,-0.141388578464281,-13.6333186565918,-0.106531701982021,-0.00347012537531555,0.120817437767982
2.92584620415934,-2.29125568736746,-0.141388578464281,-13.6333186565918,-0.10584906488657,-0.00168489955831319,0.121578797698021
2.92584620415934,-2.29125568736746,-0.141388578464281,-13.6333186565918,-0.105088949203491,6.51564914733171e-05,0.122331865131855
2.92584620415934,-2.29125568736746,-0.141388578464281,-13.6333186565918,-0.104241907596588,0.00180038821417838,0.123019240796566
2.92584620415934,-2.29125568736746,-0.141388578464281,-13.6333186565918,-0.103307940065861,0.00352079560980201,0.123640924692154
2.92584620415934,-2.29125568736746,-0.141388578464281,-13.6333186565918,-0.102287046611309,0.00522637879475951,0.124196909368038
2.92584620415934,-2.29125568736746,-0.141388578464281,-13.6333186565918,-0.101208291947842,0.00690769171342254,0.124724261462688
2.92584620415934,-2.29125568736746,-0.141388578464281,-13.6333186565918,-0.10012398660183,0.00854293536394835,0.125259310007095
2.92584620415934,-2.29125568736746,-0.141388578464281,-13.6333186565918,-0.0990573912858963,0.0101197576150298,0.12580132484436
2.92584620415934,-2.29125568736746,-0.141388578464281,-13.6333186565918,-0.0980084985494614,0.0116381580010056,0.126350313425064
2.92584620415934,-2.29125568736746,-0.141388578464281,-13.6333186565918,-0.0969773158431053,0.0130981374531984,0.126906275749207
2.92584620415934,-2.29125568736746,-0.141388578464281,-13.6333186565918,-0.0959405899047852,0.0145156811922789,0.127448856830597
2.92584620415934,-2.29125568736746,-0.141388578464281,-13.6333186565918,-0.0948772430419922,0.0159016884863377,0.1279686242342
2.92584620415934,-2.29125568736746,-0.141388578464281,-13.6333186565918,-0.0937894582748413,0.0172510724514723,0.128476470708847
2.92584620415934,-2.29125568736746,-0.141388578464281,-13.6333186565918,-0.0926772356033325,0.0185638349503279,0.128972396254539
2.92584620415934,-2.29125568736746,-0.141388578464281,-13.6333186565918,-0.0915405750274658,0.0198399741202593,0.129456415772438
2.92584620415934,-2.29125568736746,-0.141388578464281,-13.6333186565918,-0.0903874710202217,0.021040253341198,0.129905253648758
2.92584620415934,-2.29125568736746,-0.141388578464281,-13.6333186565918,-0.0892339050769806,0.0221334286034107,0.130307301878929
2.92584620415934,-2.29125568736746,-0.141388578464281,-13.6333186565918,-0.088087871670723,0.0231274925172329,0.130674183368683
2.92584620415934,-2.29125568736746,-0.141388578464281,-13.6333186565918,-0.0869493708014488,0.0240224450826645,0.131005898118019
2.92584620415934,-2.29125568736746,-0.141388578464281,-13.6333186565918,-0.0858184024691582,0.0248182862997055,0.131302446126938
2.92584620415934,-2.29125568736746,-0.141388578464281,-13.6333186565918,-0.0847116783261299,0.0255346335470676,0.131597250699997
2.92584620415934,-2.29125568736746,-0.141388578464281,-13.6333186565918,-0.0836560875177383,0.0262078195810318,0.131934642791748
2.92584620415934,-2.29125568736746,-0.141388578464281,-13.6333186565918,-0.0826617926359177,0.0268545560538769,0.132325515151024
2.92584620415934,-2.29125568736746,-0.141388578464281,-13.6333186565918,-0.0817288011312485,0.027474844828248,0.132769867777824
2.92584620415934,-2.29125568736746,-0.141388578464281,-13.6333186565918,-0.0808571130037308,0.0280686840415001,0.13326770067215
2.92584620415934,-2.29125568736746,-0.141388578464281,-13.6333186565918,-0.0800474509596825,0.0286208149045706,0.133792862296104
2.92584620415934,-2.29125568736746,-0.141388578464281,-13.6333186565918,-0.0792714804410934,0.0291254241019487,0.134282141923904
2.92584620415934,-2.29125568736746,-0.141388578464281,-13.6333186565918,-0.0785001367330551,0.0295919589698315,0.134698465466499
2.92584620415934,-2.29125568736746,-0.141388578464281,-13.6333186565918,-0.0777334123849869,0.0300204195082188,0.13504184782505
2.92584620415934,-2.29125568736746,-0.141388578464281,-13.6333186565918,-0.0769713148474693,0.0304108038544655,0.135312288999557
2.92584620415934,-2.29125568736746,-0.141388578464281,-13.6333186565918,-0.0762160196900368,0.0307464022189379,0.135501056909561
2.92584620415934,-2.29125568736746,-0.141388578464281,-13.6333186565918,-0.0754929631948471,0.0309945158660412,0.135619789361954
2.92584620415934,-2.29125568736746,-0.141388578464281,-13.6333186565918,-0.0748253911733627,0.0311391577124596,0.135688826441765
2.92584620415934,-2.29125568736746,-0.141388578464281,-13.6333186565918,-0.0742133110761642,0.0311803296208382,0.135708168148994
2.92584620415934,-2.29125568736746,-0.141388578464281,-13.6333186565918,-0.0736567154526711,0.031118031591177,0.135677829384804
2.92584620415934,-2.29125568736746,-0.141388578464281,-13.6333186565918,-0.0731643289327621,0.0309508107602596,0.135591253638268
2.92584620415934,-2.29125568736746,-0.141388578464281,-13.6333186565918,-0.0727368742227554,0.0307164490222931,0.135465160012245
2.92584620415934,-2.29125568736746,-0.141388578464281,-13.6333186565918,-0.0723663568496704,0.0304541867226362,0.13532280921936
2.92584620415934,-2.29125568736746,-0.141388578464281,-13.6333186565918,-0.0720527842640877,0.0301640219986439,0.135164186358452
2.92584620415934,-2.29125568736746,-0.141388578464281,-13.6333186565918,-0.0717961490154266,0.0298459567129612,0.134989306330681
2.92584620415934,-2.29125568736746,-0.141388578464281,-13.6333186565918,-0.0715790167450905,0.029469471424818,0.134795978665352
2.97589480849764,-2.30655044117331,-0.290196811869811,-13.6389562660144,-0.0713672339916229,0.0289844293147326,0.134548604488373
3.00926054472318,-2.344641661366,-0.480836935193147,-13.6918630621343,-0.0711440891027451,0.028371213003993,0.134213760495186
3.04077262893619,-2.40312588663317,-0.678503508776115,-13.7803301638429,-0.0709095746278763,0.0276298224925995,0.133791446685791
3.08224809271654,-2.47923549485756,-0.846103411480659,-13.881156640055,-0.0706636980175972,0.0267602559179068,0.133281663060188
3.14596738064725,-2.56576010210214,-0.952371663081753,-13.9691900795004,-0.0704093649983406,0.0258039329200983,0.13265535235405
3.23216219922989,-2.65345002392239,-0.978462125673718,-14.019278070909,-0.0701487585902214,0.0248175282031298,0.131909593939781
3.34152766796915,-2.73269141506894,-0.921651368923364,-14.0116889813017,-0.0698811486363411,0.0238163024187088,0.131070554256439
3.46155163578045,-2.79314210868257,-0.793541206050082,-13.940026292295,-0.0696065351366997,0.0228002537041903,0.130138233304024
3.57833171256983,-2.82693623137742,-0.620548911285821,-13.8115538467989,-0.0693249180912972,0.0217693839222193,0.129112631082535
3.67333137821198,-2.83006801429958,-0.4347020253489,-13.6480631735432,-0.0690435618162155,0.0207011662423611,0.128020644187927
3.73519701413016,-2.80231896096609,-0.266829779611037,-13.4799106309572,-0.0687675550580025,0.01958978921175,0.126897871494293
3.74817257821787,-2.74842316184068,-0.140517080757661,-13.3378862397337,-0.0684947147965431,0.0184519644826651,0.125753030180931
3.71040441846258,-2.67719330840197,-0.0686729885680947,-13.2479013201036,-0.0682250410318375,0.0172876920551062,0.12458611279726
3.62420959987994,-2.59889873534816,-0.0506983483690373,-13.2242667267549,-0.0679585337638855,0.0160969737917185,0.123397126793861
3.49746614352322,-2.52548391708004,-0.0741198492344758,-13.2640552394107,-0.0676843002438545,0.0149052385240793,0.12220860272646
3.34152766796915,-2.46787367774464,-0.119655604405421,-13.3507876920662,-0.0673827156424522,0.0137393726035953,0.121049597859383
3.16682096578821,-2.43429805153273,-0.16638966892297,-13.4586611800566,-0.0670450553297997,0.0126008298248053,0.119926653802395
2.98284600354463,-2.42759749272254,-0.198090398001308,-13.5584035006105,-0.0666713267564774,0.0114896092563868,0.118839778006077
2.79493203077442,-2.44828182644094,-0.206478563427535,-13.6257295669844,-0.0662615299224854,0.0104057118296623,0.117788963019848
2.60122539546506,-2.49059731197049,-0.193515035041548,-13.6477379268457,-0.0658047646284103,0.00937311537563801,0.116758227348328
