EOG_left_h,EOG_right_h,EOG_left_v,EOG_right_v,head_horizontal,head_frontal,head_sagittal
1.76836742498268,2.81962204889846,-2.82947010832407,-15.224216842216,0.0,0.0,0.0
1.76836742498268,2.81962204889846,-2.82947010832407,-15.224216842216,0.000669903645757586,-0.000141710435855202,0.00545667065307498
1.76836742498268,2.81962204889846,-2.82947010832407,-15.224216842216,0.00133793381974101,-0.000282950233668089,0.0109008401632309
1.76836742498268,2.81962204889846,-2.82947010832407,-15.224216842216,0.00200409209355712,-0.00042371975723654,0.0163325201719999
1.76836742498268,2.81962204889846,-2.82947010832407,-15.224216842216,0.0026683802716434,-0.000564019428566098,0.0217517241835594
1.76836742498268,2.81962204889846,-2.82947010832407,-15.224216842216,0.00333079998381436,-0.000703849596902728,0.0271584652364254
1.76836742498268,2.81962204889846,-2.82947010832407,-15.224216842216,0.0039913528598845,-0.000843210727907717,0.0325527526438236
1.76836742498268,2.81962204889846,-2.82947010832407,-15.224216842216,0.00465004099532962,-0.000982103170827031,0.0379346013069153
1.76836742498268,2.81962204889846,-2.82947010832407,-15.224216842216,0.00530686555430293,-0.00112052727490664,0.0433040261268616
1.76836742498268,2.81962204889846,-2.82947010832407,-15.224216842216,0.00596182886511087,-0.00125848350580782,0.0486610382795334
1.76836742498268,2.81962204889846,-2.82947010832407,-15.224216842216,0.00661493185907602,-0.00139597221277654,0.0540056489408016
1.76836742498268,2.81962204889846,-2.82947010832407,-15.224216842216,0.00726617686450481,-0.00153299374505877,0.0593378692865372
1.76836742498268,2.81962204889846,-2.82947010832407,-15.224216842216,0.0079155657440424,-0.0016695485683158,0.0646577179431915
1.76836742498268,2.81962204889846,-2.82947010832407,-15.224216842216,0.00856309942901134,-0.00180563703179359,0.069965198636055
1.76836742498268,2.81962204889846,-2.82947010832407,-15.224216842216,0.00920877978205681,-0.00194125948473811,0.0752603262662888
1.76836742498268,2.81962204889846,-2.82947010832407,-15.224216842216,0.00985260866582394,-0.00207641627639532,0.080543115735054
1.76836742498268,2.81962204889846,-2.82947010832407,-15.224216842216,0.0104945879429579,-0.00221110787242651,0.085813581943512
1.76836742498268,2.81962204889846,-2.82947010832407,-15.224216842216,0.0111347194761038,-0.00234533473849297,0.0910717397928238
1.76836742498268,2.81962204889846,-2.82947010832407,-15.224216842216,0.0117730051279068,-0.00247909734025598,0.0963175892829895
1.76836742498268,2.81962204889846,-2.82947010832407,-15.224216842216,0.0124094458296895,-0.00261239591054618,0.101551152765751
1.76836742498268,2.81962204889846,-2.82947010832407,-15.224216842216,0.013044043444097,-0.00274523068219423,0.106772437691689
1.76836742498268,2.81962204889846,-2.82947010832407,-15.224216842216,0.0136767998337746,-0.00287760235369205,0.111981466412544
1.76836742498268,2.81962204889846,-2.82947010832407,-15.224216842216,0.0143077168613672,-0.00300951115787029,0.117178238928318
1.76836742498268,2.81962204889846,-2.82947010832407,-15.224216842216,0.0149367954581976,-0.00314095732755959,0.122362777590752
1.76836742498268,2.81962204889846,-2.82947010832407,-15.224216842216,0.0155640384182334,-0.00327194156125188,0.127535089850426
1.76836742498268,2.81962204889846,-2.82947010832407,-15.224216842216,0.0161894466727972,-0.0034024640917778,0.132695183157921
1.76836742498268,2.81962204889846,-2.82947010832407,-15.224216842216,0.0168130230158567,-0.003532525151968,0.137843072414398
1.76836742498268,2.81962204889846,-2.82947010832407,-15.224216842216,0.0174347683787346,-0.00366212544031441,0.142978772521019
1.76836742498268,2.81962204889846,-2.82947010832407,-15.224216842216,0.0180546827614307,-0.00379126518964767,0.148102298378944
1.76836742498268,2.81962204889846,-2.82947010832407,-15.224216842216,0.0186727698892355,-0.00391994463279843,0.153213664889336
1.76836742498268,2.81962204889846,-2.82947010832407,-15.224216842216,0.019289031624794,-0.00404816446825862,0.158312886953354
1.76836742498268,2.81962204889846,-2.82947010832407,-15.224216842216,0.0199034679681063,-0.00417592469602823,0.163399964570999
1.76836742498268,2.81962204889846,-2.82947010832407,-15.224216842216,0.0205160826444626,-0.00430322624742985,0.168474912643433
1.76836742498268,2.81962204889846,-2.82947010832407,-15.224216842216,0.021126875653863,-0.00443006912246346,0.173537746071815
1.76836742498268,2.81962204889846,-2.82947010832407,-15.224216842216,0.0217358488589525,-0.00455645378679037,0.178588479757309
1.76836742498268,2.81962204889846,-2.82947010832407,-15.224216842216,0.0223430059850216,-0.00468238070607185,0.183627128601074
1.76836742498268,2.81962204889846,-2.82947010832407,-15.224216842216,0.0229483470320702,-0.00480784988030791,0.188653692603111
1.76836742498268,2.81962204889846,-2.82947010832407,-15.224216842216,0.0235518738627434,-0.00493286224082112,0.193668186664581
1.76836742498268,2.81962204889846,-2.82947010832407,-15.224216842216,0.0241535864770412,-0.00505741778761148,0.198670640587807
1.76836742498268,2.81962204889846,-2.82947010832407,-15.224216842216,0.0247534886002541,-0.00518151698634028,0.203661054372787
1.76836742498268,2.81962204889846,-2.82947010832407,-15.224216842216,0.025351582095027,-0.00530516030266881,0.208639428019524
1.76836742498268,2.81962204889846,-2.82947010832407,-15.224216842216,0.02594786696136,-0.00542834820225835,0.213605791330338
1.76836742498268,2.81962204889846,-2.82947010832407,-15.224216842216,0.0265423469245434,-0.0055510806851089,0.21856015920639
1.76836742498268,2.81962204889846,-2.82947010832407,-15.224216842216,0.0271350219845772,-0.00567335868254304,0.223502531647682
1.76836742498268,2.81962204889846,-2.82947010832407,-15.224216842216,0.0277258958667517,-0.00579518219456077,0.228432923555374
1.76836742498268,2.81962204889846,-2.82947010832407,-15.224216842216,0.0283149685710669,-0.00591655168682337,0.233351349830627
1.76836742498268,2.81962204889846,-2.82947010832407,-15.224216842216,0.0289022419601679,-0.00603746762499213,0.238257825374603
1.76836742498268,2.81962204889846,-2.82947010832407,-15.224216842216,0.0294877178966999,-0.00615793047472835,0.243152350187302
1.76836742498268,2.81962204889846,-2.82947010832407,-15.224216842216,0.0300713982433081,-0.00627794023603201,0.248034954071045
1.76836742498268,2.81962204889846,-2.82947010832407,-15.224216842216,0.0306532829999924,-0.00639749737456441,0.252905637025833
1.76836742498268,2.81962204889846,-2.82947010832407,-15.224216842216,0.0312333758920431,-0.00651660282164812,0.257764428853989
1.76836742498268,2.81962204889846,-2.82947010832407,-15.224216842216,0.0318116769194603,-0.00663525657728314,0.262611329555511
1.76836742498268,2.81962204889846,-2.82947010832407,-15.224216842216,0.0323881879448891,-0.00675345864146948,0.267446339130402
1.76836742498268,2.81962204889846,-2.82947010832407,-15.224216842216,0.0329629145562649,-0.0068712099455297,0.272269487380981
1.76836742498268,2.81962204889846,-2.82947010832407,-15.224216842216,0.0335358530282974,-0.00698851048946381,0.277080774307251
1.76836742498268,2.81962204889846,-2.82947010832407,-15.224216842216,0.034107007086277,-0.00710536120459437,0.28188019990921
1.76836742498268,2.81962204889846,-2.82947010832407,-15.224216842216,0.0346763804554939,-0.0072217620909214,0.286667793989182
1.76836742498268,2.81962204889846,-2.82947010832407,-15.224216842216,0.0352439731359482,-0.00733771361410618,0.291443586349487
1.76836742498268,2.81962204889846,-2.82947010832407,-15.224216842216,0.0358097851276398,-0.0074532157741487,0.296207576990128
1.76836742498268,2.81962204889846,-2.82947010832407,-15.224216842216,0.036373820155859,-0.00756826950237155,0.300959765911102
1.76836742498268,2.81962204889846,-2.82947010832407,-15.224216842216,0.0369360782206059,-0.00768287479877472,0.305700182914734
1.76836742498268,2.81962204889846,-2.82947010832407,-15.224216842216,0.0374965630471706,-0.0077970321290195,0.310428828001022
1.76836742498268,2.81962204889846,-2.82947010832407,-15.224216842216,0.0380552746355534,-0.00791074242442846,0.315145701169968
1.76836742498268,2.81962204889846,-2.82947010832407,-15.224216842216,0.0386122167110443,-0.00802400521934032,0.319850832223892
1.76836742498268,2.81962204889846,-2.82947010832407,-15.224216842216,0.0391673892736435,-0.00813682097941637,0.324544221162796
1.76836742498268,2.81962204889846,-2.82947010832407,-15.224216842216,0.0397207923233509,-0.00824919063597918,0.329225897789001
1.76836742498268,2.81962204889846,-2.82947010832407,-15.224216842216,0.0402724295854568,-0.00836111418902874,0.333895862102509
1.76836742498268,2.81962204889846,-2.82947010832407,-15.224216842216,0.0408223047852516,-0.00847259256988764,0.338554114103317
1.76836742498268,2.81962204889846,-2.82947010832407,-15.224216842216,0.0413704141974449,-0.00858362577855587,0.34320068359375
1.76836742498268,2.81962204889846,-2.82947010832407,-15.224216842216,0.0419167652726173,-0.00869421381503344,0.347835600376129
1.76836742498268,2.81962204889846,-2.82947010832407,-15.224216842216,0.0424613542854786,-0.00880435761064291,0.352458834648132
1.76836742498268,2.81962204889846,-2.82947010832407,-15.224216842216,0.0430041886866093,-0.00891405716538429,0.357070446014404
1.76836742498268,2.81962204889846,-2.82947010832407,-15.224216842216,0.0435452647507191,-0.00902331341058016,0.361670404672623
1.76836742498268,2.81962204889846,-2.82947010832407,-15.224216842216,0.0440845862030983,-0.00913212634623051,0.36625874042511
1.76836742498268,2.81962204889846,-2.82947010832407,-15.224216842216,0.0446221567690372,-0.00924049597233534,0.370835453271866
1.76836742498268,2.81962204889846,-2.82947010832407,-15.224216842216,0.0451579764485359,-0.00934842322021723,0.375400573015213
1.76836742498268,2.81962204889846,-2.82947010832407,-15.224216842216,0.0456920452415943,-0.00945590808987617,0.379954099655151
1.76836742498268,2.81962204889846,-2.82947010832407,-15.224216842216,0.0462243668735027,-0.00956295058131218,0.384496062994003
1.76836742498268,2.81962204889846,-2.82947010832407,-15.224216842216,0.0467549413442612,-0.00966955162584782,0.389026463031769
1.76836742498268,2.81962204889846,-2.82947010832407,-15.224216842216,0.0472837723791599,-0.00977571215480566,0.393545299768448
1.76836742498268,2.81962204889846,-2.82947010832407,-15.224216842216,0.047810859978199,-0.00988143216818571,0.398052603006363
1.76836742498268,2.81962204889846,-2.82947010832407,-15.224216842216,0.0483362078666687,-0.00998671166598797,0.402548372745514
1.76836742498268,2.81962204889846,-2.82947010832407,-15.224216842216,0.048859816044569,-0.0100915506482124,0.407032638788223
1.76836742498268,2.81962204889846,-2.82947010832407,-15.224216842216,0.0493816845118999,-0.0101959500461817,0.411505401134491
1.76836742498268,2.81962204889846,-2.82947010832407,-15.224216842216,0.0499018169939518,-0.0102999107912183,0.415966659784317
1.76836742498268,2.81962204889846,-2.82947010832407,-15.224216842216,0.0504202134907246,-0.0104034328833222,0.420416444540024
1.76836742498268,2.81962204889846,-2.82947010832407,-15.224216842216,0.0509368777275085,-0.0105065163224936,0.424854755401611
1.76836742498268,2.81962204889846,-2.82947010832407,-15.224216842216,0.0514518097043037,-0.0106091620400548,0.429281622171402
1.76836742498268,2.81962204889846,-2.82947010832407,-15.224216842216,0.0519650131464005,-0.010711370036006,0.433697044849396
1.76836742498268,2.81962204889846,-2.82947010832407,-15.224216842216,0.0524764880537987,-0.0108131403103471,0.438101023435593
1.76836742498268,2.81962204889846,-2.82947010832407,-15.224216842216,0.0529862381517887,-0.0109144737944007,0.442493587732315
1.76836742498268,2.81962204889846,-2.82947010832407,-15.224216842216,0.0534942634403706,-0.0110153704881668,0.446874737739563
1.76836742498268,2.81962204889846,-2.82947010832407,-15.224216842216,0.0540005639195442,-0.011115831322968,0.451244503259659
1.76836742498268,2.81962204889846,-2.82947010832407,-15.224216842216,0.0545051433146,-0.0112158562988043,0.455602884292603
1.76836742498268,2.81962204889846,-2.82947010832407,-15.224216842216,0.0550080016255379,-0.0113154454156756,0.459949880838394
1.76836742498268,2.81962204889846,-2.82947010832407,-15.224216842216,0.0555091425776482,-0.0114145996049047,0.464285522699356
1.76836742498268,2.81962204889846,-2.82947010832407,-15.224216842216,0.0560085661709309,-0.0115133188664913,0.468609809875488
1.76836742498268,2.81962204889846,-2.82947010832407,-15.224216842216,0.0565062761306763,-0.0116116041317582,0.472922772169113
1.76836742498268,2.81962204889846,-2.82947010832407,-15.224216842216,0.0570022724568844,-0.0117094554007053,0.477224409580231
1.76836742498268,2.81962204889846,-2.82947010832407,-15.224216842216,0.0574965551495552,-0.0118068736046553,0.481514722108841
1.76836742498268,2.81962204889846,-2.82947010832407,-15.224216842216,0.057989127933979,-0.0119038578122854,0.485793739557266
1.76836742498268,2.81962204889846,-2.82947010832407,-15.224216842216,0.0584799908101559,-0.012000409886241,0.490061461925507
1.76836742498268,2.81962204889846,-2.82947010832407,-15.224216842216,0.058969147503376,-0.0120965288951993,0.494317919015884
1.76836742498268,2.81962204889846,-2.82947010832407,-15.224216842216,0.0594565980136395,-0.012192215770483,0.4985631108284
1.76836742498268,2.81962204889846,-2.82947010832407,-15.224216842216,0.0599423460662365,-0.0122874714434147,0.502797067165375
1.76836742498268,2.81962204889846,-2.82947010832407,-15.224216842216,0.0604263916611671,-0.0123822959139943,0.507019758224487
1.76836742498268,2.81962204889846,-2.82947010832407,-15.224216842216,0.0609087347984314,-0.0124766891822219,0.511231243610382
1.76836742498268,2.81962204889846,-2.82947010832407,-15.224216842216,0.0613893792033196,-0.01257065217942,0.515431463718414
1.76836742498268,2.81962204889846,-2.82947010832407,-15.224216842216,0.0618683286011219,-0.0126641849055886,0.519620478153229
1.76836742498268,2.81962204889846,-2.82947010832407,-15.224216842216,0.0623455829918385,-0.0127572873607278,0.52379834651947
1.76836742498268,2.81962204889846,-2.82947010832407,-15.224216842216,0.0628211423754692,-0.01284996047616,0.527965009212494
1.76836742498268,2.81962204889846,-2.82947010832407,-15.224216842216,0.0632950067520142,-0.0129422042518854,0.532120525836945
1.76836742498268,2.81962204889846,-2.82947010832407,-15.224216842216,0.0637671798467636,-0.0130340196192265,0.536264836788177
1.76836742498268,2.81962204889846,-2.82947010832407,-15.224216842216,0.0642376691102982,-0.0131254065781832,0.540398001670837
1.76836742498268,2.81962204889846,-2.82947010832407,-15.224216842216,0.0647064670920372,-0.0132163651287556,0.544520080089569
1.76836742498268,2.81962204889846,-2.82947010832407,-15.224216842216,0.0651735812425613,-0.0133068962022662,0.548631012439728
1.76836742498268,2.81962204889846,-2.82947010832407,-15.224216842216,0.0656390115618706,-0.0133969997987151,0.552730858325958
1.76836742498268,2.81962204889846,-2.82947010832407,-15.224216842216,0.0661027580499649,-0.0134866768494248,0.556819558143616
1.76836742498268,2.81962204889846,-2.82947010832407,-15.224216842216,0.0665648207068443,-0.0135759273543954,0.560897171497345
1.76836742498268,2.81962204889846,-2.82947010832407,-15.224216842216,0.0670252069830894,-0.0136647522449493,0.564963757991791
1.76836742498268,2.81962204889846,-2.82947010832407,-15.224216842216,0.0674839168787003,-0.0137531505897641,0.569019258022308
1.76836742498268,2.81962204889846,-2.82947010832407,-15.224216842216,0.0679409503936768,-0.0138411242514849,0.573063731193542
1.76836742498268,2.81962204889846,-2.82947010832407,-15.224216842216,0.068396307528019,-0.013928672298789,0.577097117900848
1.76836742498268,2.81962204889846,-2.82947010832407,-15.224216842216,0.0688499882817268,-0.0140157956629992,0.581119477748871
1.76836742498268,2.81962204889846,-2.82947010832407,-15.224216842216,0.069302000105381,-0.0141024952754378,0.58513081073761
1.76836742498268,2.81962204889846,-2.82947010832407,-15.224216842216,0.0697523429989815,-0.0141887702047825,0.58913117647171
1.76836742498268,2.81962204889846,-2.82947010832407,-15.224216842216,0.0702010169625282,-0.0142746223136783,0.593120515346527
1.76836742498268,2.81962204889846,-2.82947010832407,-15.224216842216,0.0706480219960213,-0.0143600506708026,0.597098886966705
1.76836742498268,2.81962204889846,-2.82947010832407,-15.224216842216,0.0710933655500412,-0.014445056207478,0.601066291332245
1.76836742498268,2.81962204889846,-2.82947010832407,-15.224216842216,0.0715370401740074,-0.0145296398550272,0.605022728443146
1.76836742498268,2.81962204889846,-2.82947010832407,-15.224216842216,0.0719790533185005,-0.0146138006821275,0.608968257904053
1.76836742498268,2.81962204889846,-2.82947010832407,-15.224216842216,0.0724194049835205,-0.014697540551424,0.612902820110321
1.76836742498268,2.81962204889846,-2.82947010832407,-15.224216842216,0.072858102619648,-0.0147808585315943,0.616826474666595
1.76836742498268,2.81962204889846,-2.82947010832407,-15.224216842216,0.0732951387763023,-0.0148637555539608,0.620739221572876
1.76836742498268,2.81962204889846,-2.82947010832407,-15.224216842216,0.0737305209040642,-0.0149462325498462,0.624641060829163
1.76836742498268,2.81962204889846,-2.82947010832407,-15.224216842216,0.0741642490029335,-0.0150282885879278,0.628531992435455
1.76836742498268,2.81962204889846,-2.82947010832407,-15.224216842216,0.0745963230729103,-0.0151099245995283,0.632412075996399
1.76836742498268,2.81962204889846,-2.82947010832407,-15.224216842216,0.0750267505645752,-0.0151911415159702,0.636281311511993
1.76836742498268,2.81962204889846,-2.82947010832407,-15.224216842216,0.0754555240273476,-0.0152719393372536,0.640139639377594
1.76836742498268,2.81962204889846,-2.82947010832407,-15.224216842216,0.075882650911808,-0.0153523180633783,0.64398717880249
1.76836742498268,2.81962204889846,-2.82947010832407,-15.224216842216,0.0763081312179565,-0.0154322786256671,0.647823870182037
1.76836742498268,2.81962204889846,-2.82947010832407,-15.224216842216,0.0767319723963737,-0.0155118210241199,0.651649713516235
1.76836742498268,2.81962204889846,-2.82947010832407,-15.224216842216,0.077154166996479,-0.0155909461900592,0.655464768409729
1.76836742498268,2.81962204889846,-2.82947010832407,-15.224216842216,0.077574722468853,-0.0156696531921625,0.659269034862518
1.76836742498268,2.81962204889846,-2.82947010832407,-15.224216842216,0.0779936388134956,-0.015747943893075,0.663062512874603
1.76836742498268,2.81962204889846,-2.82947010832407,-15.224216842216,0.078410916030407,-0.015825817361474,0.666845202445984
1.76836742498268,2.81962204889846,-2.82947010832407,-15.224216842216,0.0788265541195869,-0.0159032754600048,0.670617163181305
1.76836742498268,2.81962204889846,-2.82947010832407,-15.224216842216,0.0792405605316162,-0.0159803181886673,0.674378335475922
1.76836742498268,2.81962204889846,-2.82947010832407,-15.224216842216,0.0796529352664948,-0.0160569436848164,0.678128778934479
1.76836742498268,2.81962204889846,-2.82947010832407,-15.224216842216,0.0800636783242226,-0.0161331556737423,0.681868493556976
1.76836742498268,2.81962204889846,-2.82947010832407,-15.224216842216,0.0804727897047997,-0.0162089522928,0.685597538948059
1.76836742498268,2.81962204889846,-2.82947010832407,-15.224216842216,0.080880269408226,-0.0162843335419893,0.689315855503082
1.76836742498268,2.81962204889846,-2.82947010832407,-15.224216842216,0.0812861248850822,-0.0163593012839556,0.693023502826691
1.76836742498268,2.81962204889846,-2.82947010832407,-15.224216842216,0.0816903561353683,-0.0164338555186987,0.696720480918884
1.76836742498268,2.81962204889846,-2.82947010832407,-15.224216842216,0.0820929631590843,-0.0165079962462187,0.700406789779663
1.76836742498268,2.81962204889846,-2.82947010832407,-15.224216842216,0.0824939459562302,-0.0165817234665155,0.704082429409027
1.76836742498268,2.81962204889846,-2.82947010832407,-15.224216842216,0.0828933045268059,-0.0166550390422344,0.707747399806976
1.76836742498268,2.81962204889846,-2.82947010832407,-15.224216842216,0.0832910463213921,-0.0167279429733753,0.711401760578156
1.76836742498268,2.81962204889846,-2.82947010832407,-15.224216842216,0.0836871713399887,-0.0168004333972931,0.715045511722565
1.76836742498268,2.81962204889846,-2.82947010832407,-15.224216842216,0.0840816795825958,-0.016872514039278,0.718678653240204
1.76836742498268,2.81962204889846,-2.82947010832407,-15.224216842216,0.0844745710492134,-0.016944183036685,0.722301185131073
1.76836742498268,2.81962204889846,-2.82947010832407,-15.224216842216,0.0848658531904221,-0.017015440389514,0.725913107395172
1.76836742498268,2.81962204889846,-2.82947010832407,-15.224216842216,0.0852555260062218,-0.0170862879604101,0.729514479637146
1.76836742498268,2.81962204889846,-2.82947010832407,-15.224216842216,0.0856435894966125,-0.0171567257493734,0.733105301856995
1.76836742498268,2.81962204889846,-2.82947010832407,-15.224216842216,0.0860300436615944,-0.0172267537564039,0.736685514450073
1.76836742498268,2.81962204889846,-2.82947010832407,-15.224216842216,0.0864148885011673,-0.0172963719815016,0.740255236625671
1.76836742498268,2.81962204889846,-2.82947010832407,-15.224216842216,0.0867981314659119,-0.0173655822873116,0.743814408779144
1.76836742498268,2.81962204889846,-2.82947010832407,-15.224216842216,0.0871797725558281,-0.0174343828111887,0.747363090515137
1.76836742498268,2.81962204889846,-2.82947010832407,-15.224216842216,0.087559811770916,-0.0175027754157782,0.750901222229004
1.76836742498268,2.81962204889846,-2.82947010832407,-15.224216842216,0.0879382491111755,-0.0175707601010799,0.754428863525391
1.76836742498268,2.81962204889846,-2.82947010832407,-15.224216842216,0.0883150845766068,-0.017638336867094,0.757946014404297
1.76836742498268,2.81962204889846,-2.82947010832407,-15.224216842216,0.0886903256177902,-0.0177055075764656,0.761452734470367
1.76836742498268,2.81962204889846,-2.82947010832407,-15.224216842216,0.089063972234726,-0.0177722703665495,0.764948964118958
1.76836742498268,2.81962204889846,-2.82947010832407,-15.224216842216,0.0894360244274139,-0.0178386270999908,0.768434762954712
1.76836742498268,2.81962204889846,-2.82947010832407,-15.224216842216,0.0898064821958542,-0.0179045777767897,0.771910130977631
1.76836742498268,2.81962204889846,-2.82947010832407,-15.224216842216,0.0901753529906273,-0.017970122396946,0.775375068187714
1.76836742498268,2.81962204889846,-2.82947010832407,-15.224216842216,0.0905426293611526,-0.0180352628231049,0.778829574584961
1.76836742498268,2.81962204889846,-2.82947010832407,-15.224216842216,0.0909083187580109,-0.0180999971926212,0.782273650169373
1.76836742498268,2.81962204889846,-2.82947010832407,-15.224216842216,0.0912724211812019,-0.0181643273681402,0.785707354545593
1.76836742498268,2.81962204889846,-2.82947010832407,-15.224216842216,0.0916349440813065,-0.0182282533496618,0.789130687713623
1.76836742498268,2.81962204889846,-2.82947010832407,-15.224216842216,0.0919958800077438,-0.0182917751371861,0.792543649673462
1.76836742498268,2.81962204889846,-2.82947010832407,-15.224216842216,0.0923552364110947,-0.0183548927307129,0.79594624042511
1.76836742498268,2.81962204889846,-2.82947010832407,-15.224216842216,0.0927130132913589,-0.0184176079928875,0.799338519573212
1.76836742498268,2.81962204889846,-2.82947010832407,-15.224216842216,0.0930692106485367,-0.0184799190610647,0.802720427513123
1.76836742498268,2.81962204889846,-2.82947010832407,-15.224216842216,0.0934238284826279,-0.0185418277978897,0.806092023849487
1.76836742498268,2.81962204889846,-2.82947010832407,-15.224216842216,0.0937768742442131,-0.0186033342033625,0.809453308582306
1.76836742498268,2.81962204889846,-2.82947010832407,-15.224216842216,0.0941283479332924,-0.0186644401401281,0.812804281711578
1.76836742498268,2.81962204889846,-2.82947010832407,-15.224216842216,0.0944782420992851,-0.0187251437455416,0.816144943237305
1.76836742498268,2.81962204889846,-2.82947010832407,-15.224216842216,0.0948265716433525,-0.0187854468822479,0.81947535276413
1.76836742498268,2.81962204889846,-2.82947010832407,-15.224216842216,0.0951733291149139,-0.0188453495502472,0.822795510292053
1.76836742498268,2.81962204889846,-2.82947010832407,-15.224216842216,0.09551852196455,-0.0189048517495394,0.826105415821075
1.76836742498268,2.81962204889846,-2.82947010832407,-15.224216842216,0.0958621427416801,-0.0189639534801245,0.829405069351196
1.76836742498268,2.81962204889846,-2.82947010832407,-15.224216842216,0.0962041988968849,-0.0190226566046476,0.832694470882416
1.76836742498268,2.81962204889846,-2.82947010832407,-15.224216842216,0.0965446978807449,-0.0190809592604637,0.835973680019379
1.76836742498268,2.81962204889846,-2.82947010832407,-15.224216842216,0.0968836322426796,-0.0191388633102179,0.83924263715744
1.76836742498268,2.81962204889846,-2.82947010832407,-15.224216842216,0.0972210094332695,-0.0191963687539101,0.842501401901245
1.76836742498268,2.81962204889846,-2.82947010832407,-15.224216842216,0.0975568294525146,-0.0192534755915403,0.845749974250793
1.76836742498268,2.81962204889846,-2.82947010832407,-15.224216842216,0.097891092300415,-0.0193101856857538,0.848988354206085
1.76836742498268,2.81962204889846,-2.82947010832407,-15.224216842216,0.0982237979769707,-0.0193664971739054,0.852216601371765
1.76836742498268,2.81962204889846,-2.82947010832407,-15.224216842216,0.0985549464821815,-0.0194224119186401,0.855434656143188
1.76836742498268,2.81962204889846,-2.82947010832407,-15.224216842216,0.0988845452666283,-0.0194779299199581,0.858642578125
1.76836742498268,2.81962204889846,-2.82947010832407,-15.224216842216,0.0992125943303108,-0.0195330511778593,0.8618403673172
1.76836742498268,2.81962204889846,-2.82947010832407,-15.224216842216,0.0995390936732292,-0.0195877756923437,0.865028023719788
1.76836742498268,2.81962204889846,-2.82947010832407,-15.224216842216,0.0998640432953835,-0.0196421053260565,0.868205606937408
1.76836742498268,2.81962204889846,-2.82947010832407,-15.224216842216,0.100187450647354,-0.0196960400789976,0.871373057365417
1.76836742498268,2.81962204889846,-2.82947010832407,-15.224216842216,0.100509315729141,-0.0197495799511671,0.874530434608459
1.76836742498268,2.81962204889846,-2.82947010832407,-15.224216842216,0.100829631090164,-0.019802724942565,0.877677738666534
1.76836742498268,2.81962204889846,-2.82947010832407,-15.224216842216,0.101148411631584,-0.0198554750531912,0.880814969539642
1.76836742498268,2.81962204889846,-2.82947010832407,-15.224216842216,0.101465649902821,-0.0199078321456909,0.883942186832428
1.76836742498268,2.81962204889846,-2.82947010832407,-15.224216842216,0.101781345903873,-0.019959794357419,0.887059330940247
1.76836742498268,2.81962204889846,-2.82947010832407,-15.224216842216,0.102095507085323,-0.0200113635510206,0.890166461467743
1.76836742498268,2.81962204889846,-2.82947010832407,-15.224216842216,0.10240813344717,-0.0200625397264957,0.893263578414917
1.76836742498268,2.81962204889846,-2.82947010832407,-15.224216842216,0.102719224989414,-0.0201133228838444,0.896350681781769
1.76836742498268,2.81962204889846,-2.82947010832407,-15.224216842216,0.103028789162636,-0.0201637148857117,0.899427771568298
1.76836742498268,2.81962204889846,-2.82947010832407,-15.224216842216,0.103336818516254,-0.0202137138694525,0.902494847774506
1.76836742498268,2.81962204889846,-2.82947010832407,-15.224216842216,0.103643320500851,-0.0202633216977119,0.905551970005035
1.76836742498268,2.81962204889846,-2.82947010832407,-15.224216842216,0.103948295116425,-0.0203125383704901,0.908599138259888
1.76836742498268,2.81962204889846,-2.82947010832407,-15.224216842216,0.104251742362976,-0.020361365750432,0.911636352539063
1.76836742498268,2.81962204889846,-2.82947010832407,-15.224216842216,0.104553662240505,-0.0204098019748926,0.91466361284256
1.76836742498268,2.81962204889846,-2.82947010832407,-15.224216842216,0.104854062199593,-0.0204578470438719,0.91768091917038
1.76836742498268,2.81962204889846,-2.82947010832407,-15.224216842216,0.105152942240238,-0.020505502820015,0.920688331127167
1.76836742498268,2.81962204889846,-2.82947010832407,-15.224216842216,0.105450302362442,-0.0205527693033218,0.923685848712921
1.76836742498268,2.81962204889846,-2.82947010832407,-15.224216842216,0.105746142566204,-0.0205996464937925,0.926673471927643
1.76836742498268,2.81962204889846,-2.82947010832407,-15.224216842216,0.106040462851524,-0.0206461362540722,0.929651200771332
1.76836742498268,2.81962204889846,-2.82947010832407,-15.224216842216,0.106333270668983,-0.0206922367215157,0.932619035243988
1.76836742498268,2.81962204889846,-2.82947010832407,-15.224216842216,0.106624566018581,-0.0207379497587681,0.935577034950256
1.76836742498268,2.81962204889846,-2.82947010832407,-15.224216842216,0.106914348900318,-0.0207832753658295,0.938525140285492
1.76836742498268,2.81962204889846,-2.82947010832407,-15.224216842216,0.107202619314194,-0.0208282135426998,0.94146341085434
1.76836742498268,2.81962204889846,-2.82947010832407,-15.224216842216,0.107489377260208,-0.0208727642893791,0.944391846656799
1.76836742498268,2.81962204889846,-2.82947010832407,-15.224216842216,0.107774630188942,-0.0209169294685125,0.947310447692871
1.76836742498268,2.81962204889846,-2.82947010832407,-15.224216842216,0.108058378100395,-0.0209607072174549,0.9502192735672
1.76836742498268,2.81962204889846,-2.82947010832407,-15.224216842216,0.108340620994568,-0.0210040993988514,0.95311826467514
1.76836742498268,2.81962204889846,-2.82947010832407,-15.224216842216,0.10862135887146,-0.021047106012702,0.956007480621338
1.76836742498268,2.81962204889846,-2.82947010832407,-15.224216842216,0.108900591731071,-0.0210897270590067,0.958886921405792
1.76836742498268,2.81962204889846,-2.82947010832407,-15.224216842216,0.109178327023983,-0.0211319644004107,0.961756587028503
1.76836742498268,2.81962204889846,-2.82947010832407,-15.224216842216,0.109454564750195,-0.0211738161742687,0.964616537094116
1.76836742498268,2.81962204889846,-2.82947010832407,-15.224216842216,0.109729304909706,-0.0212152842432261,0.967466711997986
1.76836742498268,2.81962204889846,-2.82947010832407,-15.224216842216,0.110002547502518,-0.0212563686072826,0.970307171344757
1.76836742498268,2.81962204889846,-2.82947010832407,-15.224216842216,0.11027429997921,-0.0212970692664385,0.97313791513443
1.76836742498268,2.81962204889846,-2.82947010832407,-15.224216842216,0.110544554889202,-0.0213373862206936,0.975958943367004
1.76836742498268,2.81962204889846,-2.82947010832407,-15.224216842216,0.110813319683075,-0.0213773213326931,0.97877025604248
1.76836742498268,2.81962204889846,-2.82947010832407,-15.224216842216,0.111080594360828,-0.021416874602437,0.981571912765503
1.76836742498268,2.81962204889846,-2.82947010832407,-15.224216842216,0.111346378922462,-0.0214560460299253,0.984363853931427
1.76836742498268,2.81962204889846,-2.82947010832407,-15.224216842216,0.111610680818558,-0.0214948356151581,0.987146139144897
1.76836742498268,2.81962204889846,-2.82947010832407,-15.224216842216,0.111873500049114,-0.0215332433581352,0.989918768405914
1.76836742498268,2.81962204889846,-2.82947010832407,-15.224216842216,0.112134829163551,-0.0215712692588568,0.992681741714478
1.76836742498268,2.81962204889846,-2.82947010832407,-15.224216842216,0.11239467561245,-0.0216089151799679,0.995435059070587
1.76836742498268,2.81962204889846,-2.82947010832407,-15.224216842216,0.11265304684639,-0.0216461811214685,0.998178780078888
1.76836742498268,2.81962204889846,-2.82947010832407,-15.224216842216,0.112909935414791,-0.0216830670833588,1.00091290473938
1.76836742498268,2.81962204889846,-2.82947010832407,-15.224216842216,0.113165348768234,-0.0217195730656385,1.00363743305206
1.76836742498268,2.81962204889846,-2.82947010832407,-15.224216842216,0.113419286906719,-0.0217556990683079,1.00635230541229
1.76836742498268,2.81962204889846,-2.82947010832407,-15.224216842216,0.113671749830246,-0.0217914469540119,1.00905764102936
1.76836742498268,2.81962204889846,-2.82947010832407,-15.224216842216,0.113922737538815,-0.0218268167227507,1.01175343990326
1.76836742498268,2.81962204889846,-2.82947010832407,-15.224216842216,0.114172257483006,-0.0218618083745241,1.014439702034
1.76836742498268,2.81962204889846,-2.82947010832407,-15.224216842216,0.114420302212238,-0.0218964219093323,1.01711630821228
1.76836742498268,2.81962204889846,-2.82947010832407,-15.224216842216,0.114666879177094,-0.0219306573271751,1.0197833776474
1.76836742498268,2.81962204889846,-2.82947010832407,-15.224216842216,0.114911988377571,-0.0219645146280527,1.02244102954865
1.76836742498268,2.81962204889846,-2.82947010832407,-15.224216842216,0.115155629813671,-0.0219979956746101,1.02508914470673
1.76836742498268,2.81962204889846,-2.82947010832407,-15.224216842216,0.115397810935974,-0.0220311004668474,1.02772772312164
1.76836742498268,2.81962204889846,-2.82947010832407,-15.224216842216,0.11563853174448,-0.0220638290047646,1.0303567647934
1.76836742498268,2.81962204889846,-2.82947010832407,-15.224216842216,0.115877784788609,-0.0220961812883615,1.03297638893127
1.76836742498268,2.81962204889846,-2.82947010832407,-15.224216842216,0.11611557751894,-0.0221281591802835,1.03558647632599
1.76836742498268,2.81962204889846,-2.82947010832407,-15.224216842216,0.116351917386055,-0.0221597608178854,1.03818714618683
1.76836742498268,2.81962204889846,-2.82947010832407,-15.224216842216,0.116586796939373,-0.0221909880638123,1.04077839851379
1.76836742498268,2.81962204889846,-2.82947010832407,-15.224216842216,0.116820223629475,-0.0222218409180641,1.04336023330688
1.76836742498268,2.81962204889846,-2.82947010832407,-15.224216842216,0.11705219745636,-0.022252319380641,1.0459326505661
1.76836742498268,2.81962204889846,-2.82947010832407,-15.224216842216,0.117282718420029,-0.022282425314188,1.04849565029144
1.76836742498268,2.81962204889846,-2.82947010832407,-15.224216842216,0.117511786520481,-0.02231215685606,1.05104923248291
1.76836742498268,2.81962204889846,-2.82947010832407,-15.224216842216,0.117739409208298,-0.0223415158689022,1.0535933971405
1.76836742498268,2.81962204889846,-2.82947010832407,-15.224216842216,0.117965579032898,-0.0223705023527145,1.05612814426422
1.76836742498268,2.81962204889846,-2.82947010832407,-15.224216842216,0.118190303444862,-0.022399116307497,1.05865347385406
1.76836742498268,2.81962204889846,-2.82947010832407,-15.224216842216,0.118413582444191,-0.0224273577332497,1.06116950511932
1.76836742498268,2.81962204889846,-2.82947010832407,-15.224216842216,0.118635416030884,-0.0224552266299725,1.06367611885071
1.76836742498268,2.81962204889846,-2.82947010832407,-15.224216842216,0.118855811655521,-0.0224827248603106,1.06617343425751
1.76836742498268,2.81962204889846,-2.82947010832407,-15.224216842216,0.119074761867523,-0.022509852424264,1.06866145133972
1.76836742498268,2.81962204889846,-2.82947010832407,-15.224216842216,0.11929227411747,-0.0225366093218327,1.07114017009735
1.76836742498268,2.81962204889846,-2.82947010832407,-15.224216842216,0.119508348405361,-0.0225629955530167,1.07360947132111
1.76836742498268,2.81962204889846,-2.82947010832407,-15.224216842216,0.119722992181778,-0.022589011117816,1.07606947422028
1.76836742498268,2.81962204889846,-2.82947010832407,-15.224216842216,0.11993619799614,-0.0226146578788757,1.07852029800415
1.76836742498268,2.81962204889846,-2.82947010832407,-15.224216842216,0.120147973299026,-0.0226399358361959,1.08096182346344
1.76836742498268,2.81962204889846,-2.82947010832407,-15.224216842216,0.120358318090439,-0.0226648449897766,1.08339405059814
1.76836742498268,2.81962204889846,-2.82947010832407,-15.224216842216,0.120567232370377,-0.0226893853396177,1.08581697940826
1.76836742498268,2.81962204889846,-2.82947010832407,-15.224216842216,0.12077471613884,-0.0227135568857193,1.08823072910309
1.76836742498268,2.81962204889846,-2.82947010832407,-15.224216842216,0.120980769395828,-0.0227373596280813,1.09063518047333
1.76836742498268,2.81962204889846,-2.82947010832407,-15.224216842216,0.121185399591923,-0.0227607954293489,1.09303045272827
1.76836742498268,2.81962204889846,-2.82947010832407,-15.224216842216,0.121388606727123,-0.0227838642895222,1.09541654586792
1.76836742498268,2.81962204889846,-2.82947010832407,-15.224216842216,0.12159039080143,-0.022806566208601,1.09779334068298
1.76836742498268,2.81962204889846,-2.82947010832407,-15.224216842216,0.121790751814842,-0.0228289011865854,1.10016095638275
1.76836742498268,2.81962204889846,-2.82947010832407,-15.224216842216,0.121989689767361,-0.0228508692234755,1.10251939296722
1.76836742498268,2.81962204889846,-2.82947010832407,-15.224216842216,0.122187212109566,-0.0228724721819162,1.1048686504364
1.76836742498268,2.81962204889846,-2.82947010832407,-15.224216842216,0.122383318841457,-0.0228937100619078,1.10720884799957
1.76836742498268,2.81962204889846,-2.82947010832407,-15.224216842216,0.122578009963036,-0.0229145828634501,1.10953986644745
1.76836742498268,2.81962204889846,-2.82947010832407,-15.224216842216,0.1227712854743,-0.0229350905865431,1.11186170578003
1.76836742498268,2.81962204889846,-2.82947010832407,-15.224216842216,0.122963152825832,-0.0229552332311869,1.1141744852066
1.76836742498268,2.81962204889846,-2.82947010832407,-15.224216842216,0.123153604567051,-0.0229750107973814,1.11647808551788
1.76836742498268,2.81962204889846,-2.82947010832407,-15.224216842216,0.123342648148537,-0.0229944251477718,1.11877262592316
1.76836742498268,2.81962204889846,-2.82947010832407,-15.224216842216,0.12353028357029,-0.0230134762823582,1.12105798721313
1.76836742498268,2.81962204889846,-2.82947010832407,-15.224216842216,0.12371651083231,-0.0230321642011404,1.12333428859711
1.76836742498268,2.81962204889846,-2.82947010832407,-15.224216842216,0.123901337385178,-0.0230504889041185,1.12560153007507
1.76836742498268,2.81962204889846,-2.82947010832407,-15.224216842216,0.124084755778313,-0.0230684503912926,1.12785971164703
1.76836742498268,2.81962204889846,-2.82947010832407,-15.224216842216,0.124266773462296,-0.0230860505253077,1.13010883331299
1.76836742498268,2.81962204889846,-2.82947010832407,-15.224216842216,0.124447390437126,-0.0231032893061638,1.13234889507294
1.76836742498268,2.81962204889846,-2.82947010832407,-15.224216842216,0.124626606702805,-0.023120166733861,1.13457989692688
1.76836742498268,2.81962204889846,-2.82947010832407,-15.224216842216,0.124804422259331,-0.0231366828083992,1.13680195808411
1.76836742498268,2.81962204889846,-2.82947010832407,-15.224216842216,0.124980844557285,-0.0231528375297785,1.13901495933533
1.76836742498268,2.81962204889846,-2.82947010832407,-15.224216842216,0.125155866146088,-0.0231686308979988,1.14121901988983
1.76836742498268,2.81962204889846,-2.82947010832407,-15.224216842216,0.125329494476318,-0.0231840647757053,1.14341402053833
1.76836742498268,2.81962204889846,-2.82947010832407,-15.224216842216,0.125501736998558,-0.0231991391628981,1.14560008049011
1.76836742498268,2.81962204889846,-2.82947010832407,-15.224216842216,0.125672593712807,-0.023213854059577,1.14777719974518
1.76836742498268,2.81962204889846,-2.82947010832407,-15.224216842216,0.125842049717903,-0.0232282094657421,1.14994525909424
1.76836742498268,2.81962204889846,-2.82947010832407,-15.224216842216,0.126010119915009,-0.0232422053813934,1.15210437774658
1.76836742498268,2.81962204889846,-2.82947010832407,-15.224216842216,0.126176804304123,-0.0232558436691761,1.15425455570221
1.76836742498268,2.81962204889846,-2.82947010832407,-15.224216842216,0.126342102885246,-0.0232691243290901,1.15639579296112
1.76836742498268,2.81962204889846,-2.82947010832407,-15.224216842216,0.126506015658379,-0.0232820473611355,1.1585282087326
1.76836742498268,2.81962204889846,-2.82947010832407,-15.224216842216,0.126668557524681,-0.0232946127653122,1.16065168380737
1.76836742498268,2.81962204889846,-2.82947010832407,-15.224216842216,0.126829713582993,-0.0233068205416203,1.16276621818542
1.76836742498268,2.81962204889846,-2.82947010832407,-15.224216842216,0.126989483833313,-0.0233186706900597,1.16487193107605
1.76836742498268,2.81962204889846,-2.82947010832407,-15.224216842216,0.127147883176804,-0.0233301650732756,1.16696870326996
1.76836742498268,2.81962204889846,-2.82947010832407,-15.224216842216,0.127304911613464,-0.023341303691268,1.16905665397644
1.76836742498268,2.81962204889846,-2.82947010832407,-15.224216842216,0.127460554242134,-0.0233520865440369,1.1711357831955
1.76836742498268,2.81962204889846,-2.82947010832407,-15.224216842216,0.127614825963974,-0.0233625136315823,1.17320609092712
1.76836742498268,2.81962204889846,-2.82947010832407,-15.224216842216,0.127767726778984,-0.0233725849539042,1.17526745796204
1.76836742498268,2.81962204889846,-2.82947010832407,-15.224216842216,0.127919256687164,-0.0233823023736477,1.17732000350952
1.76836742498268,2.81962204889846,-2.82947010832407,-15.224216842216,0.128069415688515,-0.0233916640281677,1.17936372756958
1.76836742498268,2.81962204889846,-2.82947010832407,-15.224216842216,0.128218203783035,-0.0234006717801094,1.1813987493515
1.76836742498268,2.81962204889846,-2.82947010832407,-15.224216842216,0.128365635871887,-0.0234093256294727,1.183424949646
1.76836742498268,2.81962204889846,-2.82947010832407,-15.224216842216,0.128511697053909,-0.0234176274389029,1.18544232845306
1.76836742498268,2.81962204889846,-2.82947010832407,-15.224216842216,0.128656402230263,-0.0234255753457546,1.18745100498199
1.76836742498268,2.81962204889846,-2.82947010832407,-15.224216842216,0.128799736499786,-0.0234331712126732,1.1894508600235
1.76836742498268,2.81962204889846,-2.82947010832407,-15.224216842216,0.128941714763641,-0.0234404131770134,1.19144201278687
1.76836742498268,2.81962204889846,-2.82947010832407,-15.224216842216,0.129082337021828,-0.0234473031014204,1.19342434406281
1.76836742498268,2.81962204889846,-2.82947010832407,-15.224216842216,0.129221603274345,-0.0234538409858942,1.19539797306061
1.76836742498268,2.81962204889846,-2.82947010832407,-15.224216842216,0.129359513521194,-0.0234600286930799,1.19736289978027
1.76836742498268,2.81962204889846,-2.82947010832407,-15.224216842216,0.129496067762375,-0.0234658643603325,1.1993191242218
1.76836742498268,2.81962204889846,-2.82947010832407,-15.224216842216,0.129631265997887,-0.023471349850297,1.20126664638519
1.76836742498268,2.81962204889846,-2.82947010832407,-15.224216842216,0.12976510822773,-0.0234764851629734,1.20320546627045
1.76836742498268,2.81962204889846,-2.82947010832407,-15.224216842216,0.129897609353065,-0.0234812702983618,1.20513558387756
1.76836742498268,2.81962204889846,-2.82947010832407,-15.224216842216,0.130028754472733,-0.0234857052564621,1.20705711841583
1.76836742498268,2.81962204889846,-2.82947010832407,-15.224216842216,0.130158558487892,-0.0234897900372744,1.20896995067596
1.76836742498268,2.81962204889846,-2.82947010832407,-15.224216842216,0.130287006497383,-0.0234935265034437,1.21087408065796
1.76836742498268,2.81962204889846,-2.82947010832407,-15.224216842216,0.130414113402367,-0.023496912792325,1.21276962757111
1.76836742498268,2.81962204889846,-2.82947010832407,-15.224216842216,0.130539879202843,-0.0234999507665634,1.21465659141541
1.76836742498268,2.81962204889846,-2.82947010832407,-15.224216842216,0.130664303898811,-0.0235026404261589,1.21653485298157
1.76836742498268,2.81962204889846,-2.82947010832407,-15.224216842216,0.130787387490273,-0.0235049836337566,1.21840453147888
1.76836742498268,2.81962204889846,-2.82947010832407,-15.224216842216,0.130909129977226,-0.0235069785267115,1.22026562690735
1.76836742498268,2.81962204889846,-2.82947010832407,-15.224216842216,0.131029531359673,-0.0235086269676685,1.22211813926697
1.76836742498268,2.81962204889846,-2.82947010832407,-15.224216842216,0.131148606538773,-0.0235099270939827,1.22396206855774
1.76836742498268,2.81962204889846,-2.82947010832407,-15.224216842216,0.131266340613365,-0.0235108807682991,1.22579741477966
1.76836742498268,2.81962204889846,-2.82947010832407,-15.224216842216,0.131382748484612,-0.0235114879906178,1.22762429714203
1.76836742498268,2.81962204889846,-2.82947010832407,-15.224216842216,0.13149781525135,-0.0235117506235838,1.22944259643555
1.76836742498268,2.81962204889846,-2.82947010832407,-15.224216842216,0.131611555814743,-0.0235116668045521,1.23125231266022
1.76836742498268,2.81962204889846,-2.82947010832407,-15.224216842216,0.131723970174789,-0.0235112383961678,1.23305356502533
1.76836742498268,2.81962204889846,-2.82947010832407,-15.224216842216,0.13183505833149,-0.0235104653984308,1.23484623432159
1.76836742498268,2.81962204889846,-2.82947010832407,-15.224216842216,0.131944820284843,-0.0235093478113413,1.2366304397583
1.76836742498268,2.81962204889846,-2.82947010832407,-15.224216842216,0.132053256034851,-0.0235078856348991,1.23840618133545
1.76836742498268,2.81962204889846,-2.82947010832407,-15.224216842216,0.132160365581512,-0.0235060788691044,1.24017345905304
1.76836742498268,2.81962204889846,-2.82947010832407,-15.224216842216,0.132266148924828,-0.0235039293766022,1.24193227291107
1.76836742498268,2.81962204889846,-2.82947010832407,-15.224216842216,0.132370620965958,-0.0235014371573925,1.24368262290955
1.76836742498268,2.81962204889846,-2.82947010832407,-15.224216842216,0.132473766803741,-0.0234986022114754,1.24542450904846
1.76836742498268,2.81962204889846,-2.82947010832407,-15.224216842216,0.13257560133934,-0.0234954245388508,1.24715793132782
1.76836742498268,2.81962204889846,-2.82947010832407,-15.224216842216,0.132676109671593,-0.0234919041395187,1.24888288974762
1.76836742498268,2.81962204889846,-2.82947010832407,-15.224216842216,0.13277530670166,-0.0234880410134792,1.25059938430786
1.76836742498268,2.81962204889846,-2.82947010832407,-15.224216842216,0.132873192429543,-0.0234838370233774,1.25230753421783
1.76836742498268,2.81962204889846,-2.82947010832407,-15.224216842216,0.13296976685524,-0.0234792921692133,1.25400722026825
1.76836742498268,2.81962204889846,-2.82947010832407,-15.224216842216,0.133065029978752,-0.0234744064509869,1.2556985616684
1.76836742498268,2.81962204889846,-2.82947010832407,-15.224216842216,0.133158981800079,-0.0234691798686981,1.25738155841827
1.76836742498268,2.81962204889846,-2.82947010832407,-15.224216842216,0.133251622319221,-0.0234636124223471,1.25905609130859
1.76836742498268,2.81962204889846,-2.82947010832407,-15.224216842216,0.13334296643734,-0.0234577041119337,1.26072227954865
1.76836742498268,2.81962204889846,-2.82947010832407,-15.224216842216,0.133432999253273,-0.0234514568001032,1.26238012313843
1.76836742498268,2.81962204889846,-2.82947010832407,-15.224216842216,0.133521735668182,-0.0234448704868555,1.26402962207794
1.76836742498268,2.81962204889846,-2.82947010832407,-15.224216842216,0.133609160780907,-0.0234379451721907,1.26567077636719
1.76836742498268,2.81962204889846,-2.82947010832407,-15.224216842216,0.133695289492607,-0.0234306808561087,1.26730370521545
1.76836742498268,2.81962204889846,-2.82947010832407,-15.224216842216,0.133780121803284,-0.0234230775386095,1.26892828941345
1.76836742498268,2.81962204889846,-2.82947010832407,-15.224216842216,0.133863642811775,-0.0234151370823383,1.27054452896118
1.76836742498268,2.81962204889846,-2.82947010832407,-15.224216842216,0.133945867419243,-0.0234068594872952,1.27215254306793
1.76836742498268,2.81962204889846,-2.82947010832407,-15.224216842216,0.134026810526848,-0.0233982428908348,1.27375221252441
1.76836742498268,2.81962204889846,-2.82947010832407,-15.224216842216,0.134106457233429,-0.0233892910182476,1.27534365653992
1.76836742498268,2.81962204889846,-2.82947010832407,-15.224216842216,0.134184807538986,-0.0233800020068884,1.27692687511444
1.76836742498268,2.81962204889846,-2.82947010832407,-15.224216842216,0.13426186144352,-0.0233703758567572,1.2785017490387
1.76836742498268,2.81962204889846,-2.82947010832407,-15.224216842216,0.13433763384819,-0.0233604144304991,1.28006839752197
1.76836742498268,2.81962204889846,-2.82947010832407,-15.224216842216,0.134412109851837,-0.023350115865469,1.28162682056427
1.76836742498268,2.81962204889846,-2.82947010832407,-15.224216842216,0.134485304355621,-0.023339482024312,1.28317701816559
1.76836742498268,2.81962204889846,-2.82947010832407,-15.224216842216,0.134557217359543,-0.0233285129070282,1.28471910953522
1.76836742498268,2.81962204889846,-2.82947010832407,-15.224216842216,0.134627848863602,-0.0233172103762627,1.28625297546387
1.76836742498268,2.81962204889846,-2.82947010832407,-15.224216842216,0.134697183966637,-0.0233055725693703,1.28777861595154
1.76836742498268,2.81962204889846,-2.82947010832407,-15.224216842216,0.134765237569809,-0.0232936013489962,1.28929603099823
1.76836742498268,2.81962204889846,-2.82947010832407,-15.224216842216,0.13483202457428,-0.0232812948524952,1.29080533981323
1.76836742498268,2.81962204889846,-2.82947010832407,-15.224216842216,0.134897530078888,-0.0232686549425125,1.29230642318726
1.76836742498268,2.81962204889846,-2.82947010832407,-15.224216842216,0.134961754083633,-0.0232556834816933,1.29379940032959
1.76836742498268,2.81962204889846,-2.82947010832407,-15.224216842216,0.135024696588516,-0.0232423786073923,1.29528427124023
1.76836742498268,2.81962204889846,-2.82947010832407,-15.224216842216,0.135086372494698,-0.0232287403196096,1.29676103591919
1.76836742498268,2.81962204889846,-2.82947010832407,-15.224216842216,0.135146766901016,-0.0232147704809904,1.29822969436646
1.76836742498268,2.81962204889846,-2.82947010832407,-15.224216842216,0.135205894708633,-0.0232004690915346,1.29969012737274
1.76836742498268,2.81962204889846,-2.82947010832407,-15.224216842216,0.135263755917549,-0.0231858361512423,1.30114257335663
1.76836742498268,2.81962204889846,-2.82947010832407,-15.224216842216,0.135320350527763,-0.0231708716601133,1.30258691310883
1.76836742498268,2.81962204889846,-2.82947010832407,-15.224216842216,0.135375678539276,-0.0231555756181479,1.30402314662933
1.76836742498268,2.81962204889846,-2.82947010832407,-15.224216842216,0.135429739952087,-0.023139949887991,1.30545127391815
1.76836742498268,2.81962204889846,-2.82947010832407,-15.224216842216,0.135482534766197,-0.0231239926069975,1.30687141418457
1.76836742498268,2.81962204889846,-2.82947010832407,-15.224216842216,0.135534062981606,-0.0231077056378126,1.3082834482193
1.76836742498268,2.81962204889846,-2.82947010832407,-15.224216842216,0.135584324598312,-0.0230910889804363,1.30968749523163
1.76836742498268,2.81962204889846,-2.82947010832407,-15.224216842216,0.135633334517479,-0.0230741426348686,1.31108343601227
1.76836742498268,2.81962204889846,-2.82947010832407,-15.224216842216,0.135681077837944,-0.0230568684637547,1.31247138977051
1.76836742498268,2.81962204889846,-2.82947010832407,-15.224216842216,0.135727569460869,-0.0230392646044493,1.31385135650635
1.76836742498268,2.81962204889846,-2.82947010832407,-15.224216842216,0.135772794485092,-0.0230213329195976,1.31522333621979
1.76836742498268,2.81962204889846,-2.82947010832407,-15.224216842216,0.135816767811775,-0.0230030734091997,1.31658732891083
1.76836742498268,2.81962204889846,-2.82947010832407,-15.224216842216,0.135859489440918,-0.0229844860732555,1.31794333457947
1.76836742498268,2.81962204889846,-2.82947010832407,-15.224216842216,0.13590095937252,-0.0229655709117651,1.31929135322571
1.76836742498268,2.81962204889846,-2.82947010832407,-15.224216842216,0.135941177606583,-0.0229463297873735,1.32063138484955
1.76836742498268,2.81962204889846,-2.82947010832407,-15.224216842216,0.135980144143105,-0.0229267608374357,1.32196342945099
1.76836742498268,2.81962204889846,-2.82947010832407,-15.224216842216,0.136017873883247,-0.0229068659245968,1.32328760623932
1.76836742498268,2.81962204889846,-2.82947010832407,-15.224216842216,0.13605435192585,-0.0228866450488567,1.32460379600525
1.76836742498268,2.81962204889846,-2.82947010832407,-15.224216842216,0.136089578270912,-0.0228660982102156,1.32591211795807
1.76836742498268,2.81962204889846,-2.82947010832407,-15.224216842216,0.136123567819595,-0.0228452254086733,1.32721245288849
1.76836742498268,2.81962204889846,-2.82947010832407,-15.224216842216,0.136156305670738,-0.0228240266442299,1.3285049200058
1.76836742498268,2.81962204889846,-2.82947010832407,-15.224216842216,0.136187806725502,-0.0228025037795305,1.32978951931
1.76836742498268,2.81962204889846,-2.82947010832407,-15.224216842216,0.136218070983887,-0.0227806568145752,1.33106625080109
1.76836742498268,2.81962204889846,-2.82947010832407,-15.224216842216,0.136247098445892,-0.0227584857493639,1.33233511447906
1.76836742498268,2.81962204889846,-2.82947010832407,-15.224216842216,0.136274889111519,-0.0227359905838966,1.33359611034393
1.76836742498268,2.81962204889846,-2.82947010832407,-15.224216842216,0.136301442980766,-0.0227131713181734,1.33484923839569
1.76836742498268,2.81962204889846,-2.82947010832407,-15.224216842216,0.136326760053635,-0.0226900298148394,1.33609449863434
1.76836742498268,2.81962204889846,-2.82947010832407,-15.224216842216,0.136350840330124,-0.0226665642112494,1.33733201026917
1.76836742498268,2.81962204889846,-2.82947010832407,-15.224216842216,0.136373683810234,-0.0226427763700485,1.33856165409088
1.76836742498268,2.81962204889846,-2.82947010832407,-15.224216842216,0.136395305395126,-0.0226186662912369,1.33978343009949
1.76836742498268,2.81962204889846,-2.82947010832407,-15.224216842216,0.13641569018364,-0.0225942339748144,1.34099745750427
1.76836742498268,2.81962204889846,-2.82947010832407,-15.224216842216,0.136434853076935,-0.0225694794207811,1.34220373630524
1.76836742498268,2.81962204889846,-2.82947010832407,-15.224216842216,0.136452794075012,-0.0225444044917822,1.34340214729309
1.76836742498268,2.81962204889846,-2.82947010832407,-15.224216842216,0.136469498276711,-0.0225190073251724,1.34459280967712
1.76836742498268,2.81962204889846,-2.82947010832407,-15.224216842216,0.136484980583191,-0.022493289783597,1.34577572345734
1.76836742498268,2.81962204889846,-2.82947010832407,-15.224216842216,0.136499240994453,-0.0224672518670559,1.34695088863373
1.76836742498268,2.81962204889846,-2.82947010832407,-15.224216842216,0.136512279510498,-0.0224408935755491,1.3481183052063
1.76836742498268,2.81962204889846,-2.82947010832407,-15.224216842216,0.136524111032486,-0.0224142167717218,1.34927797317505
1.76836742498268,2.81962204889846,-2.82947010832407,-15.224216842216,0.136534720659256,-0.0223872195929289,1.35042989253998
1.76836742498268,2.81962204889846,-2.82947010832407,-15.224216842216,0.136544108390808,-0.0223599039018154,1.35157418251038
1.76836742498268,2.81962204889846,-2.82947010832407,-15.224216842216,0.136552289128304,-0.0223322678357363,1.35271072387695
1.76836742498268,2.81962204889846,-2.82947010832407,-15.224216842216,0.136559247970581,-0.0223043132573366,1.35383951663971
1.76836742498268,2.81962204889846,-2.82947010832407,-15.224216842216,0.136564999818802,-0.0222760420292616,1.35496068000793
1.76836742498268,2.81962204889846,-2.82947010832407,-15.224216842216,0.136569529771805,-0.022247452288866,1.35607409477234
1.76836742498268,2.81962204889846,-2.82947010832407,-15.224216842216,0.136572852730751,-0.02221854403615,1.35717988014221
1.76836742498268,2.81962204889846,-2.82947010832407,-15.224216842216,0.136574968695641,-0.0221893191337585,1.35827803611755
1.76836742498268,2.81962204889846,-2.82947010832407,-15.224216842216,0.136575877666473,-0.0221597775816917,1.35936856269836
1.76836742498268,2.81962204889846,-2.82947010832407,-15.224216842216,0.13657557964325,-0.0221299193799496,1.36045145988464
1.76836742498268,2.81962204889846,-2.82947010832407,-15.224216842216,0.136574074625969,-0.022099744528532,1.36152672767639
1.76836742498268,2.81962204889846,-2.82947010832407,-15.224216842216,0.136571362614632,-0.0220692530274391,1.36259436607361
1.76836742498268,2.81962204889846,-2.82947010832407,-15.224216842216,0.136567458510399,-0.022038446739316,1.36365437507629
1.76836742498268,2.81962204889846,-2.82947010832407,-15.224216842216,0.136562347412109,-0.0220073238015175,1.36470675468445
1.76836742498268,2.81962204889846,-2.82947010832407,-15.224216842216,0.136556044220924,-0.0219758860766888,1.36575162410736
1.76836742498268,2.81962204889846,-2.82947010832407,-15.224216842216,0.136548534035683,-0.0219441335648298,1.36678886413574
1.76836742498268,2.81962204889846,-2.82947010832407,-15.224216842216,0.136539831757545,-0.0219120662659407,1.36781847476959
1.76836742498268,2.81962204889846,-2.82947010832407,-15.224216842216,0.136529937386513,-0.0218796860426664,1.3688405752182
1.76836742498268,2.81962204889846,-2.82947010832407,-15.224216842216,0.136518850922585,-0.021846991032362,1.36985516548157
1.76836742498268,2.81962204889846,-2.82947010832407,-15.224216842216,0.136506572365761,-0.0218139830976725,1.3708621263504
1.76836742498268,2.81962204889846,-2.82947010832407,-15.224216842216,0.136493101716042,-0.0217806622385979,1.371861577034
1.76836742498268,2.81962204889846,-2.82947010832407,-15.224216842216,0.136478438973427,-0.0217470284551382,1.37285351753235
1.76836742498268,2.81962204889846,-2.82947010832407,-15.224216842216,0.136462584137917,-0.0217130817472935,1.37383794784546
1.76836742498268,2.81962204889846,-2.82947010832407,-15.224216842216,0.136445537209511,-0.0216788221150637,1.37481486797333
1.76836742498268,2.81962204889846,-2.82947010832407,-15.224216842216,0.136427313089371,-0.0216442514210939,1.37578427791595
1.76836742498268,2.81962204889846,-2.82947010832407,-15.224216842216,0.136407896876335,-0.0216093678027391,1.37674629688263
1.76836742498268,2.81962204889846,-2.82947010832407,-15.224216842216,0.136387303471565,-0.0215741731226444,1.37770080566406
1.76836742498268,2.81962204889846,-2.82947010832407,-15.224216842216,0.136365532875061,-0.0215386673808098,1.37864780426025
1.76836742498268,2.81962204889846,-2.82947010832407,-15.224216842216,0.136342570185661,-0.0215028505772352,1.37958741188049
1.76836742498268,2.81962204889846,-2.82947010832407,-15.224216842216,0.136318430304527,-0.0214667245745659,1.38051950931549
1.76836742498268,2.81962204889846,-2.82947010832407,-15.224216842216,0.136293113231659,-0.0214302875101566,1.38144421577454
1.76836742498268,2.81962204889846,-2.82947010832407,-15.224216842216,0.136266618967056,-0.0213935412466526,1.38236153125763
1.76836742498268,2.81962204889846,-2.82947010832407,-15.224216842216,0.136238947510719,-0.0213564857840538,1.38327133655548
1.76836742498268,2.81962204889846,-2.82947010832407,-15.224216842216,0.136210098862648,-0.0213191211223602,1.38417375087738
1.76836742498268,2.81962204889846,-2.82947010832407,-15.224216842216,0.136180087924004,-0.0212814472615719,1.38506877422333
1.76836742498268,2.81962204889846,-2.82947010832407,-15.224216842216,0.136148899793625,-0.0212434642016888,1.38595640659332
1.76836742498268,2.81962204889846,-2.82947010832407,-15.224216842216,0.136116549372673,-0.021205173805356,1.38683664798737
1.76836742498268,2.81962204889846,-2.82947010832407,-15.224216842216,0.136083021759987,-0.0211665742099285,1.38770961761475
1.76836742498268,2.81962204889846,-2.82947010832407,-15.224216842216,0.136048331856728,-0.0211276672780514,1.38857519626617
1.76836742498268,2.81962204889846,-2.82947010832407,-15.224216842216,0.136012479662895,-0.0210884530097246,1.38943338394165
1.76836742498268,2.81962204889846,-2.82947010832407,-15.224216842216,0.135975450277328,-0.0210489314049482,1.39028429985046
1.76836742498268,2.81962204889846,-2.82947010832407,-15.224216842216,0.135937258601189,-0.0210091043263674,1.39112782478333
1.76836742498268,2.81962204889846,-2.82947010832407,-15.224216842216,0.135897904634476,-0.0209689699113369,1.39196407794952
1.76836742498268,2.81962204889846,-2.82947010832407,-15.224216842216,0.13585738837719,-0.0209285300225019,1.39279294013977
1.76836742498268,2.81962204889846,-2.82947010832407,-15.224216842216,0.135815724730492,-0.0208877846598625,1.39361453056335
1.76836742498268,2.81962204889846,-2.82947010832407,-15.224216842216,0.135772898793221,-0.0208467338234186,1.39442884922028
1.76836742498268,2.81962204889846,-2.82947010832407,-15.224216842216,0.135728910565376,-0.0208053775131702,1.39523589611053
1.76836742498268,2.81962204889846,-2.82947010832407,-15.224216842216,0.13568377494812,-0.0207637157291174,1.39603567123413
1.76836742498268,2.81962204889846,-2.82947010832407,-15.224216842216,0.135637477040291,-0.0207217503339052,1.39682817459106
1.76836742498268,2.81962204889846,-2.82947010832407,-15.224216842216,0.13559003174305,-0.0206794794648886,1.39761340618134
1.76836742498268,2.81962204889846,-2.82947010832407,-15.224216842216,0.135541439056396,-0.0206369049847126,1.39839136600494
1.76836742498268,2.81962204889846,-2.82947010832407,-15.224216842216,0.13549168407917,-0.0205940268933773,1.39916217327118
1.76836742498268,2.81962204889846,-2.82947010832407,-15.224216842216,0.135440781712532,-0.0205508451908827,1.39992570877075
1.76836742498268,2.81962204889846,-2.82947010832407,-15.224216842216,0.135388731956482,-0.0205073598772287,1.40068197250366
1.76836742498268,2.81962204889846,-2.82947010832407,-15.224216842216,0.13533553481102,-0.0204635728150606,1.4014310836792
1.76836742498268,2.81962204889846,-2.82947010832407,-15.224216842216,0.135281205177307,-0.0204194840043783,1.40217292308807
1.76836742498268,2.81962204889846,-2.82947010832407,-15.224216842216,0.135225728154182,-0.0203750915825367,1.40290760993958
1.76836742498268,2.81962204889846,-2.82947010832407,-15.224216842216,0.135169103741646,-0.0203303974121809,1.4036351442337
1.76836742498268,2.81962204889846,-2.82947010832407,-15.224216842216,0.135111346840858,-0.0202854014933109,1.40435552597046
1.76836742498268,2.81962204889846,-2.82947010832407,-15.224216842216,0.135052442550659,-0.0202401056885719,1.40506875514984
1.76836742498268,2.81962204889846,-2.82947010832407,-15.224216842216,0.134992405772209,-0.0201945081353188,1.40577483177185
1.76836742498268,2.81962204889846,-2.82947010832407,-15.224216842216,0.134931221604347,-0.0201486106961966,1.40647375583649
1.76836742498268,2.81962204889846,-2.82947010832407,-15.224216842216,0.134868904948235,-0.0201024115085602,1.40716552734375
1.76836742498268,2.81962204889846,-2.82947010832407,-15.224216842216,0.134805455803871,-0.0200559124350548,1.40785014629364
1.76836742498268,2.81962204889846,-2.82947010832407,-15.224216842216,0.134740874171257,-0.0200091153383255,1.40852773189545
1.76836742498268,2.81962204889846,-2.82947010832407,-15.224216842216,0.134675160050392,-0.0199620183557272,1.40919816493988
1.76836742498268,2.81962204889846,-2.82947010832407,-15.224216842216,0.134608313441277,-0.0199146214872599,1.40986144542694
1.76836742498268,2.81962204889846,-2.82947010832407,-15.224216842216,0.13454033434391,-0.0198669265955687,1.41051769256592
1.76836742498268,2.81962204889846,-2.82947010832407,-15.224216842216,0.134471237659454,-0.0198189336806536,1.41116690635681
1.76836742498268,2.81962204889846,-2.82947010832407,-15.224216842216,0.134401008486748,-0.0197706408798695,1.41180896759033
1.76836742498268,2.81962204889846,-2.82947010832407,-15.224216842216,0.134329661726952,-0.0197220519185066,1.41244399547577
1.76836742498268,2.81962204889846,-2.82947010832407,-15.224216842216,0.134257182478905,-0.0196731649339199,1.41307199001312
1.76836742498268,2.81962204889846,-2.82947010832407,-15.224216842216,0.134183585643768,-0.0196239799261093,1.41369295120239
1.76836742498268,2.81962204889846,-2.82947010832407,-15.224216842216,0.134108871221542,-0.01957449875772,1.41430687904358
1.76836742498268,2.81962204889846,-2.82947010832407,-15.224216842216,0.134033024311066,-0.0195247195661068,1.41491377353668
1.76836742498268,2.81962204889846,-2.82947010832407,-15.224216842216,0.133956059813499,-0.0194746442139149,1.4155136346817
1.76836742498268,2.81962204889846,-2.82947010832407,-15.224216842216,0.133877977728844,-0.0194242727011442,1.41610646247864
1.76836742498268,2.81962204889846,-2.82947010832407,-15.224216842216,0.133798778057098,-0.01937360689044,1.41669237613678
1.76836742498268,2.81962204889846,-2.82947010832407,-15.224216842216,0.133718475699425,-0.019322644919157,1.41727125644684
1.76836742498268,2.81962204889846,-2.82947010832407,-15.224216842216,0.133637055754662,-0.0192713886499405,1.4178432226181
1.76836742498268,2.81962204889846,-2.82947010832407,-15.224216842216,0.133554518222809,-0.0192198362201452,1.41840815544128
1.76836742498268,2.81962204889846,-2.82947010832407,-15.224216842216,0.133470878005028,-0.0191679894924164,1.41896617412567
1.76836742498268,2.81962204889846,-2.82947010832407,-15.224216842216,0.133386120200157,-0.019115848466754,1.41951727867126
1.76836742498268,2.81962204889846,-2.82947010832407,-15.224216842216,0.133300259709358,-0.019063413143158,1.42006134986877
1.76836742498268,2.81962204889846,-2.82947010832407,-15.224216842216,0.13321328163147,-0.0190106853842735,1.42059850692749
1.76836742498268,2.81962204889846,-2.82947010832407,-15.224216842216,0.133125200867653,-0.0189576633274555,1.42112874984741
1.76836742498268,2.81962204889846,-2.82947010832407,-15.224216842216,0.133036017417908,-0.0189043488353491,1.42165207862854
1.76836742498268,2.81962204889846,-2.82947010832407,-15.224216842216,0.132945731282234,-0.0188507419079542,1.42216849327087
1.76836742498268,2.81962204889846,-2.82947010832407,-15.224216842216,0.132854342460632,-0.0187968425452709,1.4226781129837
1.76836742498268,2.81962204889846,-2.82947010832407,-15.224216842216,0.132761850953102,-0.0187426507472992,1.42318081855774
1.76836742498268,2.81962204889846,-2.82947010832407,-15.224216842216,0.132668256759644,-0.018688166514039,1.42367660999298
1.76836742498268,2.81962204889846,-2.82947010832407,-15.224216842216,0.132573574781418,-0.0186333917081356,1.42416560649872
1.76836742498268,2.81962204889846,-2.82947010832407,-15.224216842216,0.132477790117264,-0.0185783244669437,1.42464768886566
1.76836742498268,2.81962204889846,-2.82947010832407,-15.224216842216,0.132380917668343,-0.0185229666531086,1.4251229763031
1.76836742498268,2.81962204889846,-2.82947010832407,-15.224216842216,0.132282942533493,-0.0184673182666302,1.42559134960175
1.76836742498268,2.81962204889846,-2.82947010832407,-15.224216842216,0.132183879613876,-0.0184113793075085,1.42605292797089
1.76836742498268,2.81962204889846,-2.82947010832407,-15.224216842216,0.132083714008331,-0.0183551497757435,1.42650771141052
1.76836742498268,2.81962204889846,-2.82947010832407,-15.224216842216,0.131982460618019,-0.0182986315339804,1.42695569992065
1.76836742498268,2.81962204889846,-2.82947010832407,-15.224216842216,0.13188011944294,-0.018241822719574,1.42739689350128
1.76836742498268,2.81962204889846,-2.82947010832407,-15.224216842216,0.131776690483093,-0.0181847251951694,1.4278312921524
1.76836742498268,2.81962204889846,-2.82947010832407,-15.224216842216,0.13167217373848,-0.0181273389607668,1.42825889587402
1.76836742498268,2.81962204889846,-2.82947010832407,-15.224216842216,0.131566569209099,-0.018069664016366,1.42867970466614
1.76836742498268,2.81962204889846,-2.82947010832407,-15.224216842216,0.131459891796112,-0.0180117003619671,1.42909371852875
1.76836742498268,2.81962204889846,-2.82947010832407,-15.224216842216,0.131352126598358,-0.0179534498602152,1.42950105667114
1.76836742498268,2.81962204889846,-2.82947010832407,-15.224216842216,0.131243273615837,-0.0178949106484652,1.42990159988403
1.76836742498268,2.81962204889846,-2.82947010832407,-15.224216842216,0.13113334774971,-0.0178360845893621,1.43029546737671
1.76836742498268,2.81962204889846,-2.82947010832407,-15.224216842216,0.131022334098816,-0.0177769716829062,1.43068253993988
1.76836742498268,2.81962204889846,-2.82947010832407,-15.224216842216,0.130910247564316,-0.0177175719290972,1.43106293678284
1.76836742498268,2.81962204889846,-2.82947010832407,-15.224216842216,0.13079708814621,-0.0176578853279352,1.43143653869629
1.76836742498268,2.81962204889846,-2.82947010832407,-15.224216842216,0.130682855844498,-0.0175979118794203,1.43180346488953
1.76836742498268,2.81962204889846,-2.82947010832407,-15.224216842216,0.13056755065918,-0.0175376534461975,1.43216371536255
1.76836742498268,2.81962204889846,-2.82947010832407,-15.224216842216,0.130451172590256,-0.0174771100282669,1.43251729011536
1.76836742498268,2.81962204889846,-2.82947010832407,-15.224216842216,0.130333721637726,-0.0174162797629833,1.43286418914795
1.76836742498268,2.81962204889846,-2.82947010832407,-15.224216842216,0.13021519780159,-0.0173551645129919,1.43320441246033
1.76836742498268,2.81962204889846,-2.82947010832407,-15.224216842216,0.130095601081848,-0.0172937661409378,1.43353796005249
1.76836742498268,2.81962204889846,-2.82947010832407,-15.224216842216,0.129974946379662,-0.0172320827841759,1.43386495113373
1.76836742498268,2.81962204889846,-2.82947010832407,-15.224216842216,0.129853218793869,-0.0171701144427061,1.43418526649475
1.76836742498268,2.81962204889846,-2.82947010832407,-15.224216842216,0.129730418324471,-0.0171078629791737,1.43449890613556
1.76836742498268,2.81962204889846,-2.82947010832407,-15.224216842216,0.129606559872627,-0.0170453283935785,1.43480598926544
1.76836742498268,2.81962204889846,-2.82947010832407,-15.224216842216,0.129481643438339,-0.0169825106859207,1.43510639667511
1.76836742498268,2.81962204889846,-2.82947010832407,-15.224216842216,0.129355669021606,-0.0169194098562002,1.43540024757385
1.76836742498268,2.81962204889846,-2.82947010832407,-15.224216842216,0.129228621721268,-0.016856025904417,1.43568754196167
1.76836742498268,2.81962204889846,-2.82947010832407,-15.224216842216,0.129100516438484,-0.0167923606932163,1.43596827983856
1.76836742498268,2.81962204889846,-2.82947010832407,-15.224216842216,0.128971353173256,-0.0167284123599529,1.43624234199524
1.76836742498268,2.81962204889846,-2.82947010832407,-15.224216842216,0.128841146826744,-0.016664182767272,1.43650984764099
1.76836742498268,2.81962204889846,-2.82947010832407,-15.224216842216,0.128709882497787,-0.0165996719151735,1.43677079677582
1.76836742498268,2.81962204889846,-2.82947010832407,-15.224216842216,0.128577560186386,-0.0165348798036575,1.43702518939972
1.76836742498268,2.81962204889846,-2.82947010832407,-15.224216842216,0.12844417989254,-0.016469806432724,1.43727314472198
1.76836742498268,2.81962204889846,-2.82947010832407,-15.224216842216,0.12830975651741,-0.0164044518023729,1.43751454353333
1.76836742498268,2.81962204889846,-2.82947010832407,-15.224216842216,0.128174275159836,-0.0163388177752495,1.43774938583374
1.76836742498268,2.81962204889846,-2.82947010832407,-15.224216842216,0.128037750720978,-0.0162729043513536,1.43797767162323
1.76836742498268,2.81962204889846,-2.82947010832407,-15.224216842216,0.127900183200836,-0.0162067096680403,1.43819952011108
1.76836742498268,2.81962204889846,-2.82947010832407,-15.224216842216,0.12776155769825,-0.0161402355879545,1.43841481208801
1.76836742498268,2.81962204889846,-2.82947010832407,-15.224216842216,0.12762188911438,-0.0160734839737415,1.43862366676331
1.76836742498268,2.81962204889846,-2.82947010832407,-15.224216842216,0.127481177449226,-0.0160064529627562,1.43882608413696
1.76836742498268,2.81962204889846,-2.82947010832407,-15.224216842216,0.127339422702789,-0.0159391425549984,1.43902206420898
1.76836742498268,2.81962204889846,-2.82947010832407,-15.224216842216,0.127196624875069,-0.0158715546131134,1.43921148777008
1.76836742498268,2.81962204889846,-2.82947010832407,-15.224216842216,0.127052798867226,-0.0158036891371012,1.43939447402954
1.76836742498268,2.81962204889846,-2.82947010832407,-15.224216842216,0.126907929778099,-0.0157355461269617,1.43957102298737
1.76836742498268,2.81962204889846,-2.82947010832407,-15.224216842216,0.126762017607689,-0.015667125582695,1.43974113464355
1.76836742498268,2.81962204889846,-2.82947010832407,-15.224216842216,0.126615077257156,-0.0155984275043011,1.43990480899811
1.76836742498268,2.81962204889846,-2.82947010832407,-15.224216842216,0.12646709382534,-0.0155294528231025,1.44006216526031
1.76836742498268,2.81962204889846,-2.82947010832407,-15.224216842216,0.126318082213402,-0.0154602015390992,1.44021308422089
1.76836742498268,2.81962204889846,-2.82947010832407,-15.224216842216,0.126168042421341,-0.0153906736522913,1.44035756587982
1.76836742498268,2.81962204889846,-2.82947010832407,-15.224216842216,0.126016959547997,-0.0153208700940013,1.44049572944641
1.76836742498268,2.81962204889846,-2.82947010832407,-15.224216842216,0.12586484849453,-0.0152507908642292,1.44062745571136
1.76836742498268,2.81962204889846,-2.82947010832407,-15.224216842216,0.125711709260941,-0.015180435962975,1.44075286388397
1.76836742498268,2.81962204889846,-2.82947010832407,-15.224216842216,0.125557541847229,-0.0151098063215613,1.44087183475494
1.76836742498268,2.81962204889846,-2.82947010832407,-15.224216842216,0.125402346253395,-0.0150389019399881,1.44098448753357
1.76836742498268,2.81962204889846,-2.82947010832407,-15.224216842216,0.1252461373806,-0.0149677228182554,1.44109082221985
1.76836742498268,2.81962204889846,-2.82947010832407,-15.224216842216,0.125088900327682,-0.0148962698876858,1.44119083881378
1.76836742498268,2.81962204889846,-2.82947010832407,-15.224216842216,0.124930642545223,-0.0148245431482792,1.44128453731537
1.76836742498268,2.81962204889846,-2.82947010832407,-15.224216842216,0.124771364033222,-0.0147525426000357,1.44137191772461
1.76836742498268,2.81962204889846,-2.82947010832407,-15.224216842216,0.124611064791679,-0.0146802691742778,1.4414529800415
1.76836742498268,2.81962204889846,-2.82947010832407,-15.224216842216,0.124449744820595,-0.0146077228710055,1.44152772426605
1.76836742498268,2.81962204889846,-2.82947010832407,-15.224216842216,0.124287404119968,-0.0145349036902189,1.44159615039825
1.76836742498268,2.81962204889846,-2.82947010832407,-15.224216842216,0.124124050140381,-0.014461811631918,1.4416583776474
1.76836742498268,2.81962204889846,-2.82947010832407,-15.224216842216,0.123959682881832,-0.0143884476274252,1.4417142868042
1.76836742498268,2.81962204889846,-2.82947010832407,-15.224216842216,0.123794302344322,-0.0143148116767406,1.44176387786865
1.76836742498268,2.81962204889846,-2.82947010832407,-15.224216842216,0.123627908527851,-0.0142409037798643,1.44180727005005
1.76836742498268,2.81962204889846,-2.82947010832407,-15.224216842216,0.123460501432419,-0.0141667248681188,1.44184446334839
1.76836742498268,2.81962204889846,-2.82947010832407,-15.224216842216,0.123292081058025,-0.014092274941504,1.44187533855438
1.76836742498268,2.81962204889846,-2.82947010832407,-15.224216842216,0.123122654855251,-0.0140175549313426,1.44190001487732
1.76836742498268,2.81962204889846,-2.82947010832407,-15.224216842216,0.122952222824097,-0.013942563906312,1.4419184923172
1.76836742498268,2.81962204889846,-2.82947010832407,-15.224216842216,0.122780784964561,-0.0138673027977347,1.44193077087402
1.76836742498268,2.81962204889846,-2.82947010832407,-15.224216842216,0.122608341276646,-0.0137917716056108,1.44193685054779
1.76836742498268,2.81962204889846,-2.82947010832407,-15.224216842216,0.122434891760349,-0.0137159712612629,1.4419367313385
1.76836742498268,2.81962204889846,-2.82947010832407,-15.224216842216,0.122260436415672,-0.0136399017646909,1.44193041324615
1.76836742498268,2.81962204889846,-2.82947010832407,-15.224216842216,0.122084982693195,-0.0135635631158948,1.44191789627075
1.76836742498268,2.81962204889846,-2.82947010832407,-15.224216842216,0.121908530592918,-0.0134869562461972,1.44189918041229
1.76836742498268,2.81962204889846,-2.82947010832407,-15.224216842216,0.121731080114841,-0.0134100802242756,1.44187438488007
1.76836742498268,2.81962204889846,-2.82947010832407,-15.224216842216,0.121552631258965,-0.0133329359814525,1.44184339046478
1.76836742498268,2.81962204889846,-2.82947010832407,-15.224216842216,0.121373184025288,-0.0132555244490504,1.44180631637573
1.76836742498268,2.81962204889846,-2.82947010832407,-15.224216842216,0.121192738413811,-0.0131778456270695,1.44176304340363
1.76836742498268,2.81962204889846,-2.82947010832407,-15.224216842216,0.121011301875114,-0.0130998995155096,1.44171369075775
1.76836742498268,2.81962204889846,-2.82947010832407,-15.224216842216,0.120828874409199,-0.0130216861143708,1.44165825843811
1.76836742498268,2.81962204889846,-2.82947010832407,-15.224216842216,0.120645448565483,-0.0129432063549757,1.44159662723541
1.76836742498268,2.81962204889846,-2.82947010832407,-15.224216842216,0.120461031794548,-0.0128644602373242,1.44152891635895
1.76836742498268,2.81962204889846,-2.82947010832407,-15.224216842216,0.120275631546974,-0.0127854477614164,1.44145512580872
1.76836742498268,2.81962204889846,-2.82947010832407,-15.224216842216,0.120089240372181,-0.0127061689272523,1.44137525558472
1.76836742498268,2.81962204889846,-2.82947010832407,-15.224216842216,0.119901865720749,-0.0126266246661544,1.44128930568695
1.76836742498268,2.81962204889846,-2.82947010832407,-15.224216842216,0.119713500142097,-0.0125468149781227,1.44119727611542
1.76836742498268,2.81962204889846,-2.82947010832407,-15.224216842216,0.119524151086807,-0.0124667407944798,1.44109928607941
1.76836742498268,2.81962204889846,-2.82947010832407,-15.224216842216,0.119333818554878,-0.0123864021152258,1.44099521636963
1.76836742498268,2.81962204889846,-2.82947010832407,-15.224216842216,0.11914250254631,-0.0123057989403605,1.44088506698608
1.76836742498268,2.81962204889846,-2.82947010832407,-15.224216842216,0.118950210511684,-0.0122249312698841,1.44076895713806
1.76836742498268,2.81962204889846,-2.82947010832407,-15.224216842216,0.11875693500042,-0.0121438000351191,1.44064676761627
1.76836742498268,2.81962204889846,-2.82947010832407,-15.224216842216,0.118562683463097,-0.0120624052360654,1.44051861763
1.76836742498268,2.81962204889846,-2.82947010832407,-15.224216842216,0.118367455899715,-0.0119807468727231,1.44038438796997
1.76836742498268,2.81962204889846,-2.82947010832407,-15.224216842216,0.118171252310276,-0.0118988258764148,1.44024419784546
1.76836742498268,2.81962204889846,-2.82947010832407,-15.224216842216,0.117974072694778,-0.0118166422471404,1.44009804725647
1.76836742498268,2.81962204889846,-2.82947010832407,-15.224216842216,0.117775917053223,-0.0117341959849,1.439945936203
1.76836742498268,2.81962204889846,-2.82947010832407,-15.224216842216,0.117576792836189,-0.0116514870896935,1.43978786468506
1.76836742498268,2.81962204889846,-2.82947010832407,-15.224216842216,0.117376692593098,-0.0115685164928436,1.43962383270264
1.76836742498268,2.81962204889846,-2.82947010832407,-15.224216842216,0.117175623774529,-0.0114852841943502,1.43945384025574
1.76836742498268,2.81962204889846,-2.82947010832407,-15.224216842216,0.116973586380482,-0.011401791125536,1.43927788734436
1.76836742498268,2.81962204889846,-2.82947010832407,-15.224216842216,0.116770580410957,-0.0113180372864008,1.43909597396851
1.76836742498268,2.81962204889846,-2.82947010832407,-15.224216842216,0.116566613316536,-0.0112340226769447,1.43890821933746
1.76836742498268,2.81962204889846,-2.82947010832407,-15.224216842216,0.116361677646637,-0.0111497472971678,1.43871450424194
1.76836742498268,2.81962204889846,-2.82947010832407,-15.224216842216,0.116155780851841,-0.0110652120783925,1.43851482868195
1.76836742498268,2.81962204889846,-2.82947010832407,-15.224216842216,0.115948922932148,-0.0109804170206189,1.43830931186676
1.76836742498268,2.81962204889846,-2.82947010832407,-15.224216842216,0.115741103887558,-0.010895362123847,1.4380978345871
1.76836742498268,2.81962204889846,-2.82947010832407,-15.224216842216,0.115532323718071,-0.0108100473880768,1.43788051605225
1.76836742498268,2.81962204889846,-2.82947010832407,-15.224216842216,0.115322582423687,-0.0107244737446308,1.43765735626221
1.76836742498268,2.81962204889846,-2.82947010832407,-15.224216842216,0.115111880004406,-0.0106386411935091,1.43742835521698
1.76836742498268,2.81962204889846,-2.82947010832407,-15.224216842216,0.114900223910809,-0.0105525506660342,1.43719351291656
1.76836742498268,2.81962204889846,-2.82947010832407,-15.224216842216,0.114687614142895,-0.0104662021622062,1.43695271015167
1.76836742498268,2.81962204889846,-2.82947010832407,-15.224216842216,0.114474050700665,-0.010379595682025,1.43670606613159
1.76836742498268,2.81962204889846,-2.82947010832407,-15.224216842216,0.114259533584118,-0.0102927312254906,1.43645370006561
1.76836742498268,2.81962204889846,-2.82947010832407,-15.224216842216,0.114044062793255,-0.0102056097239256,1.43619549274445
1.76836742498268,2.81962204889846,-2.82947010832407,-15.224216842216,0.113827638328075,-0.01011823117733,1.43593144416809
1.76836742498268,2.81962204889846,-2.82947010832407,-15.224216842216,0.11361026763916,-0.0100305955857038,1.43566155433655
1.76836742498268,2.81962204889846,-2.82947010832407,-15.224216842216,0.113391950726509,-0.00994270388036966,1.43538594245911
1.76836742498268,2.81962204889846,-2.82947010832407,-15.224216842216,0.113172687590122,-0.00985455513000488,1.43510448932648
1.76836742498268,2.81962204889846,-2.82947010832407,-15.224216842216,0.11295247823,-0.00976615119725466,1.43481731414795
1.76836742498268,2.81962204889846,-2.82947010832407,-15.224216842216,0.112731322646141,-0.00967749115079641,1.43452429771423
1.76836742498268,2.81962204889846,-2.82947010832407,-15.224216842216,0.112509220838547,-0.00958857592195272,1.43422555923462
1.76836742498268,2.81962204889846,-2.82947010832407,-15.224216842216,0.112286180257797,-0.00949940551072359,1.43392109870911
1.76836742498268,2.81962204889846,-2.82947010832407,-15.224216842216,0.112062193453312,-0.00940997991710901,1.43361079692841
1.76836742498268,2.81962204889846,-2.82947010832407,-15.224216842216,0.111837267875671,-0.00932030007243156,1.43329477310181
1.76836742498268,2.81962204889846,-2.82947010832407,-15.224216842216,0.111611403524876,-0.00923036597669125,1.43297302722931
1.76836742498268,2.81962204889846,-2.82947010832407,-15.224216842216,0.111384600400925,-0.00914017762988806,1.43264555931091
1.76836742498268,2.81962204889846,-2.82947010832407,-15.224216842216,0.111156865954399,-0.00904973596334457,1.43231236934662
1.76836742498268,2.81962204889846,-2.82947010832407,-15.224216842216,0.110928192734718,-0.00895904097706079,1.43197345733643
1.76836742498268,2.81962204889846,-2.82947010832407,-15.224216842216,0.110698588192463,-0.00886809267103672,1.43162894248962
1.76836742498268,2.81962204889846,-2.82947010832407,-15.224216842216,0.110468052327633,-0.00877689104527235,1.43127870559692
1.76836742498268,2.81962204889846,-2.82947010832407,-15.224216842216,0.110236577689648,-0.00868543703109026,1.43092274665833
1.76836742498268,2.81962204889846,-2.82947010832407,-15.224216842216,0.110004179179668,-0.00859373062849045,1.43056118488312
1.76836742498268,2.81962204889846,-2.82947010832407,-15.224216842216,0.109770849347115,-0.00850177276879549,1.43019390106201
1.76836742498268,2.81962204889846,-2.82947010832407,-15.224216842216,0.109536588191986,-0.00840956252068281,1.4298210144043
1.76836742498268,2.81962204889846,-2.82947010832407,-15.224216842216,0.109301403164864,-0.00831710081547499,1.42944240570068
1.76836742498268,2.81962204889846,-2.82947010832407,-15.224216842216,0.109065294265747,-0.00822438765317202,1.42905819416046
1.76836742498268,2.81962204889846,-2.82947010832407,-15.224216842216,0.108828261494637,-0.00813142396509647,1.42866837978363
1.76836742498268,2.81962204889846,-2.82947010832407,-15.224216842216,0.108590304851532,-0.00803820975124836,1.42827296257019
1.76836742498268,2.81962204889846,-2.82947010832407,-15.224216842216,0.108351424336433,-0.00794474501162767,1.42787194252014
1.76836742498268,2.81962204889846,-2.82947010832407,-15.224216842216,0.108111619949341,-0.00785102974623442,1.42746531963348
1.76836742498268,2.81962204889846,-2.82947010832407,-15.224216842216,0.107870899140835,-0.00775706488639116,1.42705309391022
1.76836742498268,2.81962204889846,-2.82947010832407,-15.224216842216,0.107629254460335,-0.00766285043209791,1.42663526535034
1.76836742498268,2.81962204889846,-2.82947010832407,-15.224216842216,0.107386693358421,-0.00756838684901595,1.42621183395386
1.76836742498268,2.81962204889846,-2.82947010832407,-15.224216842216,0.107143215835094,-0.00747367413714528,1.42578279972076
1.76836742498268,2.81962204889846,-2.82947010832407,-15.224216842216,0.106898829340935,-0.00737871276214719,1.42534828186035
1.76836742498268,2.81962204889846,-2.82947010832407,-15.224216842216,0.106653526425362,-0.00728350272402167,1.42490816116333
1.76836742498268,2.81962204889846,-2.82947010832407,-15.224216842216,0.106407307088375,-0.00718804448843002,1.42446255683899
1.76836742498268,2.81962204889846,-2.82947010832407,-15.224216842216,0.106160178780556,-0.00709233852103353,1.42401134967804
1.76836742498268,2.81962204889846,-2.82947010832407,-15.224216842216,0.105912141501904,-0.00699638482183218,1.42355465888977
1.76836742498268,2.81962204889846,-2.82947010832407,-15.224216842216,0.105663195252419,-0.00690018385648727,1.42309236526489
1.76836742498268,2.81962204889846,-2.82947010832407,-15.224216842216,0.105413340032101,-0.00680373562499881,1.4226245880127
1.76836742498268,2.81962204889846,-2.82947010832407,-15.224216842216,0.10516257584095,-0.00670704059302807,1.42215132713318
1.76836742498268,2.81962204889846,-2.82947010832407,-15.224216842216,0.104910910129547,-0.00661009922623634,1.42167258262634
1.76836742498268,2.81962204889846,-2.82947010832407,-15.224216842216,0.104658335447311,-0.00651291152462363,1.42118835449219
1.76836742498268,2.81962204889846,-2.82947010832407,-15.224216842216,0.104404859244823,-0.00641547795385122,1.42069864273071
1.76836742498268,2.81962204889846,-2.82947010832407,-15.224216842216,0.104150481522083,-0.00631779851391912,1.42020344734192
1.76836742498268,2.81962204889846,-2.82947010832407,-15.224216842216,0.103895202279091,-0.0062198736704886,1.41970276832581
1.76836742498268,2.81962204889846,-2.82947010832407,-15.224216842216,0.103639021515846,-0.00612170342355967,1.41919660568237
1.76836742498268,2.81962204889846,-2.82947010832407,-15.224216842216,0.103381939232349,-0.0060232887044549,1.41868507862091
1.76836742498268,2.81962204889846,-2.82947010832407,-15.224216842216,0.103123962879181,-0.00592462904751301,1.41816806793213
1.76836742498268,2.81962204889846,-2.82947010832407,-15.224216842216,0.102865092456341,-0.00582572491839528,1.41764569282532
1.76836742498268,2.81962204889846,-2.82947010832407,-15.224216842216,0.102605320513248,-0.005726576782763,1.41711783409119
1.76836742498268,2.81962204889846,-2.82947010832407,-15.224216842216,0.102344654500484,-0.00562718510627747,1.41658461093903
1.76836742498268,2.81962204889846,-2.82947010832407,-15.224216842216,0.102083101868629,-0.00552754988893867,1.41604590415955
1.76836742498268,2.81962204889846,-2.82947010832407,-15.224216842216,0.101820655167103,-0.0054276711307466,1.41550183296204
1.76836742498268,2.81962204889846,-2.82947010832407,-15.224216842216,0.101557314395905,-0.00532754929736257,1.4149523973465
1.76836742498268,2.81962204889846,-2.82947010832407,-15.224216842216,0.101293087005615,-0.00522718485444784,1.41439759731293
1.76836742498268,2.81962204889846,-2.82947010832407,-15.224216842216,0.101027972996235,-0.00512657826766372,1.41383743286133
1.76836742498268,2.81962204889846,-2.82947010832407,-15.224216842216,0.100761972367764,-0.00502572953701019,1.4132719039917
1.76836742498268,2.81962204889846,-2.82947010832407,-15.224216842216,0.100495085120201,-0.00492463866248727,1.41270101070404
1.76836742498268,2.81962204889846,-2.82947010832407,-15.224216842216,0.100227311253548,-0.00482330610975623,1.41212475299835
1.76836742498268,2.81962204889846,-2.82947010832407,-15.224216842216,0.0999586507678032,-0.00472173234447837,1.41154313087463
1.76836742498268,2.81962204889846,-2.82947010832407,-15.224216842216,0.0996891111135483,-0.00461991736665368,1.41095614433289
1.76836742498268,2.81962204889846,-2.82947010832407,-15.224216842216,0.0994186922907829,-0.00451786164194345,1.4103639125824
1.76836742498268,2.81962204889846,-2.82947010832407,-15.224216842216,0.0991473942995071,-0.00441556517034769,1.40976631641388
1.76836742498268,2.81962204889846,-2.82947010832407,-15.224216842216,0.0988752171397209,-0.00431302841752768,1.40916347503662
1.76836742498268,2.81962204889846,-2.82947010832407,-15.224216842216,0.0986021608114243,-0.0042102518491447,1.40855526924133
1.76836742498268,2.81962204889846,-2.82947010832407,-15.224216842216,0.0983282253146172,-0.00410723546519876,1.4079418182373
1.76836742498268,2.81962204889846,-2.82947010832407,-15.224216842216,0.0980534180998802,-0.00400397973135114,1.40732300281525
1.76836742498268,2.81962204889846,-2.82947010832407,-15.224216842216,0.0977777317166328,-0.00390048464760184,1.40669894218445
1.76836742498268,2.81962204889846,-2.82947010832407,-15.224216842216,0.0975011736154556,-0.00379675067961216,1.40606963634491
1.76836742498268,2.81962204889846,-2.82947010832407,-15.224216842216,0.0972237437963486,-0.00369277806021273,1.40543508529663
1.76836742498268,2.81962204889846,-2.82947010832407,-15.224216842216,0.0969454422593117,-0.0035885670222342,1.40479528903961
1.76836742498268,2.81962204889846,-2.82947010832407,-15.224216842216,0.0966662690043449,-0.00348411779850721,1.40415024757385
1.76836742498268,2.81962204889846,-2.82947010832407,-15.224216842216,0.096386231482029,-0.00337943085469306,1.40349996089935
1.76836742498268,2.81962204889846,-2.82947010832407,-15.224216842216,0.0961053222417831,-0.00327450619079173,1.40284442901611
1.76836742498268,2.81962204889846,-2.82947010832407,-15.224216842216,0.0958235487341881,-0.00316934427246451,1.40218365192413
1.76836742498268,2.81962204889846,-2.82947010832407,-15.224216842216,0.0955409109592438,-0.00306394533254206,1.4015177488327
1.76836742498268,2.81962204889846,-2.82947010832407,-15.224216842216,0.0952574089169502,-0.00295830960385501,1.40084660053253
1.76836742498268,2.81962204889846,-2.82947010832407,-15.224216842216,0.0949730426073074,-0.00285243731923401,1.40017020702362
1.76836742498268,2.81962204889846,-2.82947010832407,-15.224216842216,0.0946878120303154,-0.00274632894434035,1.39948868751526
1.76836742498268,2.81962204889846,-2.82947010832407,-15.224216842216,0.0944017246365547,-0.00263998447917402,1.39880192279816
1.76836742498268,2.81962204889846,-2.82947010832407,-15.224216842216,0.0941147729754448,-0.00253340438939631,1.3981100320816
1.76836742498268,2.81962204889846,-2.82947010832407,-15.224216842216,0.0938269644975662,-0.00242658890783787,1.3974130153656
1.76836742498268,2.81962204889846,-2.82947010832407,-15.224216842216,0.093538299202919,-0.00231953803449869,1.39671087265015
1.76836742498268,2.81962204889846,-2.82947010832407,-15.224216842216,0.0932487770915031,-0.00221225246787071,1.39600348472595
1.76836742498268,2.81962204889846,-2.82947010832407,-15.224216842216,0.0929583981633186,-0.00210473220795393,1.39529097080231
1.76836742498268,2.81962204889846,-2.82947010832407,-15.224216842216,0.0926671698689461,-0.00199697748757899,1.39457333087921
1.76836742498268,2.81962204889846,-2.82947010832407,-15.224216842216,0.0923750847578049,-0.00188898877240717,1.39385056495667
1.76836742498268,2.81962204889846,-2.82947010832407,-15.224216842216,0.0920821502804756,-0.00178076617885381,1.39312267303467
1.76836742498268,2.81962204889846,-2.82947010832407,-15.224216842216,0.0917883664369583,-0.00167231005616486,1.39238977432251
1.76836742498268,2.81962204889846,-2.82947010832407,-15.224216842216,0.091493733227253,-0.00156362063717097,1.3916517496109
1.76836742498268,2.81962204889846,-2.82947010832407,-15.224216842216,0.0911982506513596,-0.00145469815470278,1.39090859889984
1.76836742498268,2.81962204889846,-2.82947010832407,-15.224216842216,0.0909019187092781,-0.00134554284159094,1.39016032218933
1.76836742498268,2.81962204889846,-2.82947010832407,-15.224216842216,0.0906047448515892,-0.00123615504708141,1.38940703868866
1.76836742498268,2.81962204889846,-2.82947010832407,-15.224216842216,0.0903067216277123,-0.00112653500400484,1.38864862918854
1.76836742498268,2.81962204889846,-2.82947010832407,-15.224216842216,0.0900078564882278,-0.00101668306160718,1.38788521289825
1.76836742498268,2.81962204889846,-2.82947010832407,-15.224216842216,0.089708149433136,-0.000906599336303771,1.38711678981781
1.76836742498268,2.81962204889846,-2.82947010832407,-15.224216842216,0.0894076004624367,-0.000796284177340567,1.38634324073792
1.76836742498268,2.81962204889846,-2.82947010832407,-15.224216842216,0.0891062095761299,-0.000685737875755876,1.38556468486786
1.76836742498268,2.81962204889846,-2.82947010832407,-15.224216842216,0.0888039842247963,-0.000574960664380342,1.38478112220764
1.76836742498268,2.81962204889846,-2.82947010832407,-15.224216842216,0.0885009169578552,-0.000463952776044607,1.38399255275726
1.76836742498268,2.81962204889846,-2.82947010832407,-15.224216842216,0.0881970152258873,-0.000352714501786977,1.38319897651672
1.76836742498268,2.81962204889846,-2.82947010832407,-15.224216842216,0.0878922790288925,-0.000241246132645756,1.38240039348602
1.76836742498268,2.81962204889846,-2.82947010832407,-15.224216842216,0.0876252204179764,-0.000197850196855143,1.38159394264221
1.76836742498268,2.81962204889846,-2.82947010832407,-15.224216842216,0.0874343439936638,-0.000290829251753166,1.38077664375305
1.76836742498268,2.81962204889846,-2.82947010832407,-15.224216842216,0.0873196572065353,-0.00052018353017047,1.37994849681854
1.76836742498268,2.81962204889846,-2.82947010832407,-15.224216842216,0.087281160056591,-0.000885913381353021,1.37910962104797
1.76836742498268,2.81962204889846,-2.82947010832407,-15.224216842216,0.0873188599944115,-0.00138801895081997,1.37826001644135
1.76836742498268,2.81962204889846,-2.82947010832407,-15.224216842216,0.0874552726745605,-0.00200470210984349,1.37745261192322
1.76836742498268,2.81962204889846,-2.82947010832407,-15.224216842216,0.087712936103344,-0.00271416432224214,1.37674057483673
1.76836742498268,2.81962204889846,-2.82947010832407,-15.224216842216,0.0880918428301811,-0.00351640582084656,1.37612390518188
1.76836742498268,2.81962204889846,-2.82947010832407,-15.224216842216,0.088591992855072,-0.00441142730414867,1.37560248374939
1.76836742498268,2.81962204889846,-2.82947010832407,-15.224216842216,0.0892133936285973,-0.00539922853931785,1.37517642974854
1.76836742498268,2.81962204889846,-2.82947010832407,-15.224216842216,0.0899654850363731,-0.00647254381328821,1.37482392787933
1.76836742498268,2.81962204889846,-2.82947010832407,-15.224216842216,0.0908577218651772,-0.00762410694733262,1.37452328205109
1.76836742498268,2.81962204889846,-2.82947010832407,-15.224216842216,0.0918901041150093,-0.00885391794145107,1.3742743730545
1.76836742498268,2.81962204889846,-2.82947010832407,-15.224216842216,0.093062624335289,-0.0101619781926274,1.37407720088959
1.76836742498268,2.81962204889846,-2.82947010832407,-15.224216842216,0.0943752899765968,-0.0115482872352004,1.37393188476563
1.76836742498268,2.81962204889846,-2.82947010832407,-15.224216842216,0.0958135724067688,-0.0130404569208622,1.37387251853943
1.76836742498268,2.81962204889846,-2.82947010832407,-15.224216842216,0.0973629355430603,-0.014666099101305,1.37393319606781
1.76836742498268,2.81962204889846,-2.82947010832407,-15.224216842216,0.0990233868360519,-0.0164252128452063,1.37411403656006
1.76836742498268,2.81962204889846,-2.82947010832407,-15.224216842216,0.100794918835163,-0.0183178000152111,1.37441504001617
1.76836742498268,2.81962204889846,-2.82947010832407,-15.224216842216,0.102677538990974,-0.0203438606113195,1.37483608722687
1.76836742498268,2.81962204889846,-2.82947010832407,-15.224216842216,0.104635640978813,-0.0225033946335316,1.37542021274567
1.76836742498268,2.81962204889846,-2.82947010832407,-15.224216842216,0.106595113873482,-0.02472810074687,1.37621307373047
1.76836742498268,2.81962204889846,-2.82947010832407,-15.224216842216,0.108517445623875,-0.0269496757537127,1.37721765041351
1.76836742498268,2.81962204889846,-2.82947010832407,-15.224216842216,0.110402636229992,-0.0291681196540594,1.3784339427948
1.76836742498268,2.81962204889846,-2.82947010832407,-15.224216842216,0.112250685691833,-0.0313834324479103,1.37986195087433
1.76836742498268,2.81962204889846,-2.82947010832407,-15.224216842216,0.114056512713432,-0.0335621908307076,1.3815279006958
1.76836742498268,2.81962204889846,-2.82947010832407,-15.224216842216,0.115792505443096,-0.0356927700340748,1.38340485095978
1.76836742498268,2.81962204889846,-2.82947010832407,-15.224216842216,0.117436140775681,-0.0377969704568386,1.38543975353241
1.76836742498268,2.81962204889846,-2.82947010832407,-15.224216842216,0.118987418711185,-0.0398747883737087,1.38763272762299
1.76836742498268,2.81962204889846,-2.82947010832407,-15.224216842216,0.120446339249611,-0.0419262275099754,1.38998365402222
1.76836742498268,2.81962204889846,-2.82947010832407,-15.224216842216,0.121793285012245,-0.0439258515834808,1.39243304729462
1.76836742498268,2.81962204889846,-2.82947010832407,-15.224216842216,0.12299919128418,-0.0458554998040199,1.39494299888611
1.76836742498268,2.81962204889846,-2.82947010832407,-15.224216842216,0.124054618179798,-0.0477224364876747,1.39753544330597
1.76836742498268,2.81962204889846,-2.82947010832407,-15.224216842216,0.1249595656991,-0.0495266653597355,1.4002103805542
1.76836742498268,2.81962204889846,-2.82947010832407,-15.224216842216,0.125714033842087,-0.051268182694912,1.40296769142151
1.76836742498268,2.81962204889846,-2.82947010832407,-15.224216842216,0.126307845115662,-0.0529215559363365,1.40581691265106
1.76836742498268,2.81962204889846,-2.82947010832407,-15.224216842216,0.126745358109474,-0.0544337444007397,1.40873336791992
1.76836742498268,2.81962204889846,-2.82947010832407,-15.224216842216,0.12704111635685,-0.0557771399617195,1.41168296337128
1.76836742498268,2.81962204889846,-2.82947010832407,-15.224216842216,0.127195119857788,-0.0569517388939857,1.41466557979584
1.76836742498268,2.81962204889846,-2.82947010832407,-15.224216842216,0.127207368612289,-0.0579575411975384,1.41768133640289
1.76836742498268,2.81962204889846,-2.82947010832407,-15.224216842216,0.127032086253166,-0.0588134415447712,1.42071998119354
1.76836742498268,2.81962204889846,-2.82947010832407,-15.224216842216,0.126659095287323,-0.0595383308827877,1.42372858524323
1.76836742498268,2.81962204889846,-2.82947010832407,-15.224216842216,0.126124009490013,-0.0601322092115879,1.4266642332077
1.76836742498268,2.81962204889846,-2.82947010832407,-15.224216842216,0.125426828861237,-0.0605950765311718,1.42952692508698
1.76836742498268,2.81962204889846,-2.82947010832407,-15.224216842216,0.124567553400993,-0.0609269365668297,1.43231666088104
1.76836742498268,2.81962204889846,-2.82947010832407,-15.224216842216,0.123569436371326,-0.0611001737415791,1.43499195575714
1.76836742498268,2.81962204889846,-2.82947010832407,-15.224216842216,0.122460812330246,-0.0611206032335758,1.43748533725739
1.76836742498268,2.81962204889846,-2.82947010832407,-15.224216842216,0.12124677747488,-0.0610216483473778,1.43977069854736
1.76836742498268,2.81962204889846,-2.82947010832407,-15.224216842216,0.119927324354649,-0.0608033128082752,1.44184792041779
1.76836742498268,2.81962204889846,-2.82947010832407,-15.224216842216,0.118502460420132,-0.0604655928909779,1.44371712207794
1.76836742498268,2.81962204889846,-2.82947010832407,-15.224216842216,0.116958379745483,-0.0600433684885502,1.44539129734039
1.76836742498268,2.81962204889846,-2.82947010832407,-15.224216842216,0.115300893783569,-0.059596948325634,1.44694316387177
1.76836742498268,2.81962204889846,-2.82947010832407,-15.224216842216,0.113549619913101,-0.0591517649590969,1.44843232631683
1.76836742498268,2.81962204889846,-2.82947010832407,-15.224216842216,0.11170456558466,-0.0587078183889389,1.4498587846756
1.76836742498268,2.81962204889846,-2.82947010832407,-15.224216842216,0.109765730798244,-0.05826510861516,1.45122253894806
1.76836742498268,2.81962204889846,-2.82947010832407,-15.224216842216,0.107712768018246,-0.0578185506165028,1.45246541500092
1.76836742498268,2.81962204889846,-2.82947010832407,-15.224216842216,0.105535507202148,-0.0573884919285774,1.45351994037628
1.76836742498268,2.81962204889846,-2.82947010832407,-15.224216842216,0.103244118392467,-0.0570003613829613,1.45437657833099
1.76836742498268,2.81962204889846,-2.82947010832407,-15.224216842216,0.100838609039783,-0.0566541589796543,1.45503544807434
1.76836742498268,2.81962204889846,-2.82947010832407,-15.224216842216,0.0983189791440964,-0.0563498884439468,1.45549654960632
1.76836742498268,2.81962204889846,-2.82947010832407,-15.224216842216,0.0957397222518921,-0.0560722872614861,1.45572197437286
1.76836742498268,2.81962204889846,-2.82947010832407,-15.224216842216,0.0932011157274246,-0.055787205696106,1.45568418502808
1.76836742498268,2.81962204889846,-2.82947010832407,-15.224216842216,0.0907489359378815,-0.055475752800703,1.45539343357086
1.76836742498268,2.81962204889846,-2.82947010832407,-15.224216842216,0.0883831828832626,-0.0551379285752773,1.45484972000122
1.76836742498268,2.81962204889846,-2.82947010832407,-15.224216842216,0.0861038640141487,-0.0547737330198288,1.45405292510986
1.76836742498268,2.81962204889846,-2.82947010832407,-15.224216842216,0.0839582085609436,-0.0543649978935719,1.45298790931702
1.76836742498268,2.81962204889846,-2.82947010832407,-15.224216842216,0.0819701924920082,-0.0539211742579937,1.45168077945709
1.76836742498268,2.81962204889846,-2.82947010832407,-15.224216842216,0.0801165625452995,-0.0534698702394962,1.45017302036285
1.76836742498268,2.81962204889846,-2.82947010832407,-15.224216842216,0.0783973261713982,-0.0530110895633698,1.4484646320343
1.76836742498268,2.81962204889846,-2.82947010832407,-15.224216842216,0.0768124833703041,-0.052544828504324,1.44655549526215
1.76836742498268,2.81962204889846,-2.82947010832407,-15.224216842216,0.0753576755523682,-0.0520928874611855,1.44450390338898
1.76836742498268,2.81962204889846,-2.82947010832407,-15.224216842216,0.0740423500537872,-0.0516421906650066,1.44235479831696
1.76836742498268,2.81962204889846,-2.82947010832407,-15.224216842216,0.0728803128004074,-0.051157858222723,1.44009518623352
1.76836742498268,2.81962204889846,-2.82947010832407,-15.224216842216,0.0718715637922287,-0.0506398901343346,1.43772506713867
1.76836742498268,2.81962204889846,-2.82947010832407,-15.224216842216,0.0710161030292511,-0.0500882863998413,1.43524444103241
1.76836742498268,2.81962204889846,-2.82947010832407,-15.224216842216,0.0703742429614067,-0.0495945997536182,1.43267869949341
1.76836742498268,2.81962204889846,-2.82947010832407,-15.224216842216,0.0700266361236572,-0.0492554754018784,1.43011152744293
1.76836742498268,2.81962204889846,-2.82947010832407,-15.224216842216,0.0699936375021935,-0.0490759983658791,1.42760097980499
1.76836742498268,2.81962204889846,-2.82947010832407,-15.224216842216,0.0702752396464348,-0.04905616492033,1.42514705657959
1.76836742498268,2.81962204889846,-2.82947010832407,-15.224216842216,0.0708714500069618,-0.0491959787905216,1.42274975776672
1.76836742498268,2.81962204889846,-2.82947010832407,-15.224216842216,0.071814239025116,-0.0494845435023308,1.42038667201996
1.76836742498268,2.81962204889846,-2.82947010832407,-15.224216842216,0.0730810761451721,-0.0499262139201164,1.41807293891907
1.76836742498268,2.81962204889846,-2.82947010832407,-15.224216842216,0.074617475271225,-0.0505362525582314,1.41584634780884
1.76836742498268,2.81962204889846,-2.82947010832407,-15.224216842216,0.0764234289526939,-0.0513146594166756,1.41370701789856
1.76836742498268,2.81962204889846,-2.82947010832407,-15.224216842216,0.0784989446401596,-0.0522614307701588,1.41165482997894
1.76836742498268,2.81962204889846,-2.82947010832407,-15.224216842216,0.0808411166071892,-0.05338529124856,1.40972113609314
1.76836742498268,2.81962204889846,-2.82947010832407,-15.224216842216,0.083399809896946,-0.0547131225466728,1.40795242786407
1.76836742498268,2.81962204889846,-2.82947010832407,-15.224216842216,0.0861277878284454,-0.056263092905283,1.40636396408081
1.76836742498268,2.81962204889846,-2.82947010832407,-15.224216842216,0.0890250578522682,-0.0580352023243904,1.40495574474335
1.76836742498268,2.81962204889846,-2.82947010832407,-15.224216842216,0.0920916199684143,-0.0600294508039951,1.40372776985168
1.76836742498268,2.81962204889846,-2.82947010832407,-15.224216842216,0.0953369215130806,-0.0622211322188377,1.40274107456207
1.76836742498268,2.81962204889846,-2.82947010832407,-15.224216842216,0.0987747684121132,-0.0645637437701225,1.40199863910675
1.76836742498268,2.81962204889846,-2.82947010832407,-15.224216842216,0.102409519255161,-0.0670354887843132,1.40144228935242
1.76836742498268,2.81962204889846,-2.82947010832407,-15.224216842216,0.106241181492805,-0.0696363672614098,1.40107202529907
1.76836742498268,2.81962204889846,-2.82947010832407,-15.224216842216,0.110269747674465,-0.0723663792014122,1.40088784694672
1.76836742498268,2.81962204889846,-2.82947010832407,-15.224216842216,0.114460349082947,-0.0752444118261337,1.40085124969482
1.76836742498268,2.81962204889846,-2.82947010832407,-15.224216842216,0.118717797100544,-0.0781978145241737,1.4008983373642
1.76836742498268,2.81962204889846,-2.82947010832407,-15.224216842216,0.122981779277325,-0.081135019659996,1.40100359916687
1.76836742498268,2.81962204889846,-2.82947010832407,-15.224216842216,0.127252295613289,-0.0840560346841812,1.40116715431213
1.76836742498268,2.81962204889846,-2.82947010832407,-15.224216842216,0.131529361009598,-0.0869608670473099,1.4013888835907
1.76836742498268,2.81962204889846,-2.82947010832407,-15.224216842216,0.135791167616844,-0.0898109972476959,1.40166676044464
1.76836742498268,2.81962204889846,-2.82947010832407,-15.224216842216,0.139983952045441,-0.0925788134336472,1.40202105045319
1.76836742498268,2.81962204889846,-2.82947010832407,-15.224216842216,0.144075736403465,-0.0952752158045769,1.40247428417206
1.76836742498268,2.81962204889846,-2.82947010832407,-15.224216842216,0.148066520690918,-0.0979002043604851,1.40302646160126
1.76836742498268,2.81962204889846,-2.82947010832407,-15.224216842216,0.151956304907799,-0.100453779101372,1.40367770195007
1.76836742498268,2.81962204889846,-2.82947010832407,-15.224216842216,0.155694961547852,-0.102936670184135,1.40439879894257
1.76836742498268,2.81962204889846,-2.82947010832407,-15.224216842216,0.159235253930092,-0.105340883135796,1.40512955188751
1.76836742498268,2.81962204889846,-2.82947010832407,-15.224216842216,0.162580102682114,-0.107657700777054,1.40583872795105
1.76836742498268,2.81962204889846,-2.82947010832407,-15.224216842216,0.165729492902756,-0.10988712310791,1.40652620792389
1.76836742498268,2.81962204889846,-2.82947010832407,-15.224216842216,0.168683439493179,-0.112029150128365,1.40719211101532
1.76836742498268,2.81962204889846,-2.82947010832407,-15.224216842216,0.171412140130997,-0.11406198143959,1.40786552429199
1.76836742498268,2.81962204889846,-2.82947010832407,-15.224216842216,0.173876360058784,-0.115988522768021,1.40851438045502
1.76836742498268,2.81962204889846,-2.82947010832407,-15.224216842216,0.176066666841507,-0.117833480238914,1.40907776355743
1.76836742498268,2.81962204889846,-2.82947010832407,-15.224216842216,0.177983045578003,-0.119596861302853,1.40955555438995
1.76836742498268,2.81962204889846,-2.82947010832407,-15.224216842216,0.179625511169434,-0.121278658509254,1.40994787216187
1.76836742498268,2.81962204889846,-2.82947010832407,-15.224216842216,0.180987522006035,-0.122895583510399,1.41029906272888
1.76836742498268,2.81962204889846,-2.82947010832407,-15.224216842216,0.182097405195236,-0.124445460736752,1.41069185733795
1.76836742498268,2.81962204889846,-2.82947010832407,-15.224216842216,0.182990044355392,-0.125909402966499,1.41116487979889
1.76836742498268,2.81962204889846,-2.82947010832407,-15.224216842216,0.183665454387665,-0.127287402749062,1.4117180109024
1.76836742498268,2.81962204889846,-2.82947010832407,-15.224216842216,0.184123620390892,-0.128579452633858,1.41235136985779
1.76836742498268,2.81962204889846,-2.82947010832407,-15.224216842216,0.184304967522621,-0.129758685827255,1.41304314136505
1.76836742498268,2.81962204889846,-2.82947010832407,-15.224216842216,0.184171706438065,-0.130836710333824,1.41377377510071
1.76836742498268,2.81962204889846,-2.82947010832407,-15.224216842216,0.183745637536049,-0.131852045655251,1.41454529762268
1.76836742498268,2.81962204889846,-2.82947010832407,-15.224216842216,0.183026775717735,-0.132804706692696,1.41535782814026
1.76836742498268,2.81962204889846,-2.82947010832407,-15.224216842216,0.182015106081963,-0.133694678544998,1.41621136665344
1.76836742498268,2.81962204889846,-2.82947010832407,-15.224216842216,0.180712819099426,-0.134458020329475,1.41703319549561
1.76836742498268,2.81962204889846,-2.82947010832407,-15.224216842216,0.179172232747078,-0.135030061006546,1.41777980327606
1.76836742498268,2.81962204889846,-2.82947010832407,-15.224216842216,0.177443474531174,-0.135410070419312,1.41848027706146
1.76836742498268,2.81962204889846,-2.82947010832407,-15.224216842216,0.175526559352875,-0.135598063468933,1.41913461685181
1.76836742498268,2.81962204889846,-2.82947010832407,-15.224216842216,0.17342147231102,-0.13559402525425,1.41974270343781
1.76836742498268,2.81962204889846,-2.82947010832407,-15.224216842216,0.171120226383209,-0.135434299707413,1.42035114765167
1.76836742498268,2.81962204889846,-2.82947010832407,-15.224216842216,0.168644636869431,-0.135177001357079,1.42097735404968
1.76836742498268,2.81962204889846,-2.82947010832407,-15.224216842216,0.166024476289749,-0.134843945503235,1.42159235477448
1.76836742498268,2.81962204889846,-2.82947010832407,-15.224216842216,0.163259759545326,-0.13443511724472,1.42219614982605
1.76836742498268,2.81962204889846,-2.82947010832407,-15.224216842216,0.160350486636162,-0.133950531482697,1.42278861999512
1.76836742498268,2.81962204889846,-2.82947010832407,-15.224216842216,0.157315537333488,-0.133425787091255,1.4233124256134
1.76836742498268,2.81962204889846,-2.82947010832407,-15.224216842216,0.154180347919464,-0.13287977874279,1.42366588115692
1.76836742498268,2.81962204889846,-2.82947010832407,-15.224216842216,0.150951474905014,-0.132295787334442,1.42380464076996
1.76836742498268,2.81962204889846,-2.82947010832407,-15.224216842216,0.147628903388977,-0.131673812866211,1.4237288236618
1.76836742498268,2.81962204889846,-2.82947010832407,-15.224216842216,0.144212633371353,-0.131013855338097,1.42343831062317
1.76836742498268,2.81962204889846,-2.82947010832407,-15.224216842216,0.140733927488327,-0.130265787243843,1.4229279756546
1.76836742498268,2.81962204889846,-2.82947010832407,-15.224216842216,0.137283593416214,-0.129406347870827,1.42221462726593
1.76836742498268,2.81962204889846,-2.82947010832407,-15.224216842216,0.133921235799789,-0.128462433815002,1.42132008075714
1.76836742498268,2.81962204889846,-2.82947010832407,-15.224216842216,0.130646839737892,-0.127434030175209,1.42024433612823
1.76836742498268,2.81962204889846,-2.82947010832407,-15.224216842216,0.127460405230522,-0.126321151852608,1.41898739337921
1.76836742498268,2.81962204889846,-2.82947010832407,-15.224216842216,0.124430246651173,-0.125156491994858,1.41753256320953
1.76836742498268,2.81962204889846,-2.82947010832407,-15.224216842216,0.121622480452061,-0.124036684632301,1.415935754776
1.76836742498268,2.81962204889846,-2.82947010832407,-15.224216842216,0.119034931063652,-0.123025678098202,1.41426968574524
1.76836742498268,2.81962204889846,-2.82947010832407,-15.224216842216,0.116667598485947,-0.122123472392559,1.41253423690796
1.76836742498268,2.81962204889846,-2.82947010832407,-15.224216842216,0.114520490169525,-0.121330067515373,1.41072952747345
1.76836742498268,2.81962204889846,-2.82947010832407,-15.224216842216,0.112595051527023,-0.120640382170677,1.4089035987854
1.76836742498268,2.81962204889846,-2.82947010832407,-15.224216842216,0.110900729894638,-0.120012991130352,1.407057762146
1.76836742498268,2.81962204889846,-2.82947010832407,-15.224216842216,0.10944551974535,-0.119411565363407,1.4051456451416
1.76836742498268,2.81962204889846,-2.82947010832407,-15.224216842216,0.108229428529739,-0.118836104869843,1.40316712856293
1.76836742498268,2.81962204889846,-2.82947010832407,-15.224216842216,0.107252448797226,-0.118286617100239,1.40112233161926
1.76836742498268,2.81962204889846,-2.82947010832407,-15.224216842216,0.106544375419617,-0.117779083549976,1.39900755882263
1.76836742498268,2.81962204889846,-2.82947010832407,-15.224216842216,0.106116108596325,-0.117293879389763,1.39687657356262
1.76836742498268,2.81962204889846,-2.82947010832407,-15.224216842216,0.105948761105537,-0.116795405745506,1.3947868347168
1.76836742498268,2.81962204889846,-2.82947010832407,-15.224216842216,0.106042332947254,-0.116283662617207,1.39273834228516
1.76836742498268,2.81962204889846,-2.82947010832407,-15.224216842216,0.106396824121475,-0.115758650004864,1.3907310962677
1.76836742498268,2.81962204889846,-2.82947010832407,-15.224216842216,0.107043474912643,-0.115213833749294,1.3888064622879
1.76836742498268,2.81962204889846,-2.82947010832407,-15.224216842216,0.107982292771339,-0.114692807197571,1.38701105117798
1.76836742498268,2.81962204889846,-2.82947010832407,-15.224216842216,0.10918202996254,-0.11424570530653,1.38534986972809
1.70196447413674,2.7099650843401,-2.73088459197035,-15.3105064443746,0.110642693936825,-0.113872528076172,1.38382303714752
1.48698366504397,2.64890841319867,-2.56845494971228,-15.3862989609098,0.112364277243614,-0.113573275506496,1.38243043422699
1.13166258010885,2.63400160051196,-2.37437608264692,-15.4498152247668,0.114386029541492,-0.113367572426796,1.38116121292114
0.662471987179978,2.65483029769065,-2.18666343896234,-15.4953619013702,0.11667887866497,-0.113242335617542,1.38002121448517
0.122508506397897,2.70036754740483,-2.03696624346582,-15.5143989888567,0.119174525141716,-0.113164864480495,1.37902724742889
-0.428555618965844,2.75815697193,-1.95202263435661,-15.5033681531168,0.121872968971729,-0.113135166466236,1.37817919254303
-0.924367667226302,2.8188052372444,-1.94056343227122,-15.4647602280273,0.12477421015501,-0.113153234124184,1.37747704982758
-1.30043339565565,2.87312321223979,-2.00040593205051,-15.3987531302936,0.127835378050804,-0.113206721842289,1.3769303560257
-1.50571997667484,2.91437220077012,-2.11463416871128,-15.3181568627103,0.131012156605721,-0.113288357853889,1.37650048732758
-1.51405801740134,2.94153118826781,-2.25414540679856,-15.2343580944284,0.134303092956543,-0.113403238356113,1.37613964080811
-1.33127410051148,2.94520684071111,-2.39238340020968,-15.1628355788247,0.137708187103271,-0.11355135589838,1.375847697258
-0.995441930045525,2.91988567943506,-2.5053383921943,-15.1180005690433,0.141227439045906,-0.11373271048069,1.37562477588654
-0.572964456849424,2.85780799372605,-2.57391171261008,-15.1096384838857,0.144844859838486,-0.113990902900696,1.3754780292511
-0.145413838392022,2.75264349326505,-2.59628444049109,-15.1384609901737,0.148514673113823,-0.114353537559509,1.37541842460632
0.203779288900725,2.60071652560877,-2.58027793599086,-15.2019772540307,0.152207091450691,-0.114804640412331,1.37544965744019
0.406956245157797,2.40509013445997,-2.54098924312664,-15.2889785230113,0.155922114849091,-0.115344204008579,1.3755716085434
0.424586680669844,2.1753618567539,-2.49733513994418,-15.384875627266,0.159659743309021,-0.115972228348255,1.37578439712524
0.253807533259698,1.92950154888004,-2.47387105948361,-15.4716989795411,0.163370579481125,-0.116632767021656,1.37610614299774
-0.0734354506747452,1.68731689344947,-2.47787268560867,-15.5325464928159,0.166973948478699,-0.117276407778263,1.37651360034943
-0.496515673802882,1.46943238472736,-2.51716137847288,-15.5590560819326,0.170438632369041,-0.11790969222784,1.37696540355682
-0.940340540425251,1.29688092280592,-2.58573469888867,-15.5425098283228,0.173764616250992,-0.118532620370388,1.37746155261993
-1.33232891289254,1.17619700091767,-2.66813181864556,-15.4880673164454,0.17695190012455,-0.119145192205906,1.37800192832947
-1.6160734433984,1.10799322780315,-2.74889190953311,-15.4015997975813,0.179972141981125,-0.119747407734394,1.37854814529419
-1.76364671842517,1.07654597912161,-2.80436899899416,-15.2984081084018,0.182757779955864,-0.120319649577141,1.37907266616821
-1.77966982078512,1.06388539848359,-2.82128496397736,-15.1907685015854,0.185269564390182,-0.120842292904854,1.3795862197876
-1.69880087157031,1.04142307799678,-2.78690735772117,-15.091668896632,0.187507510185242,-0.121315345168114,1.38008892536163
-1.57694492697707,0.986084088433804,-2.70360077748131,-15.0098272121104,0.189471617341042,-0.12173880636692,1.38058078289032
-1.47713958406414,0.878264950097092,-2.57209279164415,-14.9468446983699,0.191115379333496,-0.122117035090923,1.38108789920807
-1.45719860714596,0.713881604716309,-2.40493395487464,-14.8996967714172,0.192435160279274,-0.122466742992401,1.38162708282471
-1.55825967908396,0.500897965918599,-2.21103697990588,-14.8600213460948,0.19347383081913,-0.122800283133984,1.38218879699707
-1.79569292314507,0.259530122142095,-2.00604458704491,-14.8173213367792,0.194231390953064,-0.123117655515671,1.38277316093445
-2.1598041112557,0.0171412637980093,-1.79377651032019,-14.7559400733879,0.194707855582237,-0.123418860137463,1.38338017463684
-2.61719085134888,-0.1970675924808,-1.5780524837602,-14.6655583870032,0.194877058267593,-0.123665384948254,1.38403367996216
-3.12134094033583,-0.357775285418286,-1.35341574446712,-14.5347896084741,0.194728821516037,-0.123775124549866,1.38475048542023
-3.61871009258738,-0.448849784846645,-1.11495520583293,-14.3565170695814,0.194279134273529,-0.123704485595226,1.38552331924438
-4.0615806051507,-0.468861670371262,-0.851757342062011,-14.1243357689277,0.193528011441231,-0.123453460633755,1.38635230064392
-4.41584687770474,-0.430267319716643,-0.553090519455343,-13.8341536222869,0.192475438117981,-0.123022057116032,1.38723731040955
-4.66518443292356,-0.351853400926307,-0.205494722865,-13.4797435449673,0.191117063164711,-0.122423350811005,1.38813471794128
-4.81466641606844,-0.259349481103332,0.204126278663756,-13.0539888687494,0.18949793279171,-0.121726371347904,1.38898289203644
-4.88930694931887,-0.180527156485963,0.692688450114128,-12.5444354242496,0.187667459249496,-0.120987065136433,1.38976359367371
-4.92928936147725,-0.135602515512333,1.27710775646932,-11.9329357075088,0.185625642538071,-0.120205439627171,1.39047682285309
-4.98499350102956,-0.134581500944751,1.9866688252809,-11.1997409642184,0.183372497558594,-0.119381487369537,1.39112269878387
-5.10971250779997,-0.179710344831897,2.84756411845834,-10.3215441059605,0.180915996432304,-0.118525385856628,1.39170694351196
-5.35277141789341,-0.261391510238497,3.89871854467268,-9.2741484607893,0.178292483091354,-0.117647305130959,1.39227390289307
-5.74993339394401,-0.368802242748177,5.17560106275965,-8.03389110687593,0.175530299544334,-0.116747252643108,1.39286208152771
-6.31938139223484,-0.48703572967423,6.71040657381633,-6.5872503746037,0.172629445791245,-0.115825220942497,1.39347147941589
-7.05694639240266,-0.6066986369949,8.53478430265,-4.92444084517113,0.169589921832085,-0.114881210029125,1.39410209655762
-7.93485166841282,-0.720848065650624,10.6594658829597,-3.0456404352837,0.166397914290428,-0.113877438008785,1.39470744132996
-8.90532928815148,-0.831526044776567,13.0853607752283,-0.963659147736088,0.163086131215096,-0.112771764397621,1.39521491527557
-9.90418638385683,-0.945062864691741,15.7911876041545,1.2980180123481,0.159701079130173,-0.111559823155403,1.39559829235077
-10.8643167964289,-1.06717620697461,18.737657676874,3.70896728833149,0.156242743134499,-0.110241621732712,1.39585769176483
-11.7239386578339,-1.20521737651176,21.8716585011815,6.23324950570676,0.152711138129234,-0.108817160129547,1.39599299430847
-12.4382475564574,-1.36469985196815,25.1286183827863,8.82905423868571,0.14917166531086,-0.107289336621761,1.39599776268005
-12.9896632859481,-1.54215218381399,28.4390545407895,11.4575956454733,0.145715862512589,-0.105699576437473,1.39584147930145
-13.390441761591,-1.727976835114,31.7393047413835,14.0872045524938,0.142369911074638,-0.104086391627789,1.39550006389618
-13.6815197496033,-1.91420989224105,34.97534703188,16.6887026200481,0.139133796095848,-0.102449774742126,1.39497363567352
-13.9249302638237,-2.08471932502733,38.1031635249033,19.2439423441772,0.136007517576218,-0.100789733231068,1.39426219463348
-14.1913959629445,-2.23766730725119,41.096561758544,21.743672056196,0.133010700345039,-0.0991164371371269,1.39335918426514
-14.5457626938206,-2.36631514276658,43.9433549623302,24.1813088380017,0.130167320370674,-0.0974269807338715,1.39230155944824
