EOG_left_h,EOG_right_h,EOG_left_v,EOG_right_v,head_horizontal,head_frontal,head_sagittal
-20.5764016802749,-10.7993771846112,-3.66282287161766,-28.5188768618651,0.0,0.0,0.0
-20.5764016802749,-10.7993771846112,-3.66282287161766,-28.5188768618651,0.000324471242493019,-0.000270559132331982,0.000962416175752878
-20.5764016802749,-10.7993771846112,-3.66282287161766,-28.5188768618651,0.000648077810183167,-0.000540479435585439,0.00192326330579817
-20.5764016802749,-10.7993771846112,-3.66282287161766,-28.5188768618651,0.00097082054708153,-0.000809761404525489,0.00288254325278103
-20.5764016802749,-10.7993771846112,-3.66282287161766,-28.5188768618651,0.00129270053002983,-0.00107840565033257,0.00384025787934661
-20.5764016802749,-10.7993771846112,-3.66282287161766,-28.5188768618651,0.00161371857393533,-0.00134641258046031,0.00479640858247876
-20.5764016802749,-10.7993771846112,-3.66282287161766,-28.5188768618651,0.00193387572653592,-0.00161378283519298,0.00575099745765328
-20.5764016802749,-10.7993771846112,-3.66282287161766,-28.5188768618651,0.00225317291915417,-0.00188051688019186,0.00670402636751533
-20.5764016802749,-10.7993771846112,-3.66282287161766,-28.5188768618651,0.00257161096669734,-0.00214661518111825,0.00765549717471004
-20.5764016802749,-10.7993771846112,-3.66282287161766,-28.5188768618651,0.002889190800488,-0.00241207843646407,0.00860541127622128
-20.5764016802749,-10.7993771846112,-3.66282287161766,-28.5188768618651,0.00320591335184872,-0.00267690699547529,0.00955377053469419
-20.5764016802749,-10.7993771846112,-3.66282287161766,-28.5188768618651,0.00352177955210209,-0.00294110155664384,0.0105005763471127
-20.5764016802749,-10.7993771846112,-3.66282287161766,-28.5188768618651,0.00383679056540132,-0.00320466258563101,0.0114458315074444
-20.5764016802749,-10.7993771846112,-3.66282287161766,-28.5188768618651,0.00415094709023833,-0.00346759054809809,0.0123895369470119
-20.5764016802749,-10.7993771846112,-3.66282287161766,-28.5188768618651,0.00446425005793571,-0.00372988590970635,0.0133316945284605
-20.5764016802749,-10.7993771846112,-3.66282287161766,-28.5188768618651,0.00477670039981604,-0.00399154936894774,0.0142723061144352
-20.5764016802749,-10.7993771846112,-3.66282287161766,-28.5188768618651,0.00508829904720187,-0.00425258139148355,0.0152113735675812
-20.5764016802749,-10.7993771846112,-3.66282287161766,-28.5188768618651,0.0053990469314158,-0.00451298244297504,0.0161488987505436
-20.5764016802749,-10.7993771846112,-3.66282287161766,-28.5188768618651,0.00570894544944167,-0.00477275298908353,0.0170848835259676
-20.5764016802749,-10.7993771846112,-3.66282287161766,-28.5188768618651,0.00601799506694078,-0.00503189396113157,0.0180193297564983
-20.5764016802749,-10.7993771846112,-3.66282287161766,-28.5188768618651,0.00632619671523571,-0.00529040535911918,0.0189522374421358
-20.5764016802749,-10.7993771846112,-3.66282287161766,-28.5188768618651,0.00663355132564902,-0.00554828811436892,0.0198836103081703
-20.5764016802749,-10.7993771846112,-3.66282287161766,-28.5188768618651,0.0069400598295033,-0.00580554222688079,0.020813450217247
-20.5764016802749,-10.7993771846112,-3.66282287161766,-28.5188768618651,0.00724572315812111,-0.00606216862797737,0.0217417571693659
-20.5764016802749,-10.7993771846112,-3.66282287161766,-28.5188768618651,0.00755054224282503,-0.00631816778331995,0.0226685348898172
-20.5764016802749,-10.7993771846112,-3.66282287161766,-28.5188768618651,0.00785451754927635,-0.00657354015856981,0.0235937833786011
-20.5764016802749,-10.7993771846112,-3.66282287161766,-28.5188768618651,0.00815765094012022,-0.00682828621938825,0.0245175044983625
-20.5764016802749,-10.7993771846112,-3.66282287161766,-28.5188768618651,0.00845994241535664,-0.00708240643143654,0.0254397019743919
-20.5764016802749,-10.7993771846112,-3.66282287161766,-28.5188768618651,0.00876139383763075,-0.00733590172603726,0.0263603758066893
-20.5764016802749,-10.7993771846112,-3.66282287161766,-28.5188768618651,0.00906200520694256,-0.00758877210319042,0.0272795278578997
-20.5764016802749,-10.7993771846112,-3.66282287161766,-28.5188768618651,0.00936177838593721,-0.00784101895987988,0.0281971599906683
-20.5764016802749,-10.7993771846112,-3.66282287161766,-28.5188768618651,0.00966071337461472,-0.00809264183044434,0.0291132740676403
-20.5764016802749,-10.7993771846112,-3.66282287161766,-28.5188768618651,0.00995881203562021,-0.00834364164620638,0.0300278719514608
-20.5764016802749,-10.7993771846112,-3.66282287161766,-28.5188768618651,0.0102560743689537,-0.008594018407166,0.030940955504775
-20.5764016802749,-10.7993771846112,-3.66282287161766,-28.5188768618651,0.0105525022372603,-0.00884377304464579,0.0318525284528732
-20.5764016802749,-10.7993771846112,-3.66282287161766,-28.5188768618651,0.0108480956405401,-0.0090929064899683,0.0327625870704651
-20.5764016802749,-10.7993771846112,-3.66282287161766,-28.5188768618651,0.0111428555101156,-0.00934141874313354,0.0336711369454861
-20.5764016802749,-10.7993771846112,-3.66282287161766,-28.5188768618651,0.011436783708632,-0.0095893107354641,0.0345781818032265
-20.5764016802749,-10.7993771846112,-3.66282287161766,-28.5188768618651,0.0117298802360892,-0.00983658246695995,0.035483717918396
-20.5764016802749,-10.7993771846112,-3.66282287161766,-28.5188768618651,0.0120221469551325,-0.0100832348689437,0.0363877527415752
-20.5764016802749,-10.7993771846112,-3.66282287161766,-28.5188768618651,0.0123135838657618,-0.0103292679414153,0.0372902825474739
-20.5764016802749,-10.7993771846112,-3.66282287161766,-28.5188768618651,0.0126041918992996,-0.0105746826156974,0.0381913147866726
-20.5764016802749,-10.7993771846112,-3.66282287161766,-28.5188768618651,0.0128939719870687,-0.0108194798231125,0.039090845733881
-20.5764016802749,-10.7993771846112,-3.66282287161766,-28.5188768618651,0.013182925991714,-0.0110636595636606,0.0399888791143894
-20.5764016802749,-10.7993771846112,-3.66282287161766,-28.5188768618651,0.0134710539132357,-0.0113072218373418,0.0408854186534882
-20.5764016802749,-10.7993771846112,-3.66282287161766,-28.5188768618651,0.0137583566829562,-0.0115501685068011,0.0417804643511772
-20.5764016802749,-10.7993771846112,-3.66282287161766,-28.5188768618651,0.0140448352321982,-0.0117924986407161,0.0426740199327469
-20.5764016802749,-10.7993771846112,-3.66282287161766,-28.5188768618651,0.0143304914236069,-0.0120342141017318,0.0435660853981972
-20.5764016802749,-10.7993771846112,-3.66282287161766,-28.5188768618651,0.0146153252571821,-0.0122753139585257,0.0444566607475281
-20.5764016802749,-10.7993771846112,-3.66282287161766,-28.5188768618651,0.0148993376642466,-0.0125158000737429,0.0453457497060299
-20.5764016802749,-10.7993771846112,-3.66282287161766,-28.5188768618651,0.0151825295761228,-0.0127556724473834,0.0462333522737026
-20.5764016802749,-10.7993771846112,-3.66282287161766,-28.5188768618651,0.0154649019241333,-0.0129949310794473,0.0471194721758366
-20.5764016802749,-10.7993771846112,-3.66282287161766,-28.5188768618651,0.0157464556396008,-0.013233576901257,0.048004113137722
-20.5764016802749,-10.7993771846112,-3.66282287161766,-28.5188768618651,0.0160271916538477,-0.0134716108441353,0.0488872714340687
-20.5764016802749,-10.7993771846112,-3.66282287161766,-28.5188768618651,0.0163071118295193,-0.013709032908082,0.0497689507901669
-20.5764016802749,-10.7993771846112,-3.66282287161766,-28.5188768618651,0.0165862161666155,-0.0139458440244198,0.0506491549313068
-20.5764016802749,-10.7993771846112,-3.66282287161766,-28.5188768618651,0.0168645046651363,-0.0141820441931486,0.0515278838574886
-20.5764016802749,-10.7993771846112,-3.66282287161766,-28.5188768618651,0.017141979187727,-0.0144176343455911,0.0524051412940025
-20.5764016802749,-10.7993771846112,-3.66282287161766,-28.5188768618651,0.0174186415970325,-0.0146526144817472,0.0532809272408485
-20.5764016802749,-10.7993771846112,-3.66282287161766,-28.5188768618651,0.0176944918930531,-0.0148869855329394,0.054155245423317
-20.5764016802749,-10.7993771846112,-3.66282287161766,-28.5188768618651,0.0179695300757885,-0.0151207474991679,0.0550280921161175
-20.5764016802749,-10.7993771846112,-3.66282287161766,-28.5188768618651,0.018243758007884,-0.0153539013117552,0.0558994747698307
-20.5764016802749,-10.7993771846112,-3.66282287161766,-28.5188768618651,0.0185171756893396,-0.0155864479020238,0.0567693933844566
-20.5764016802749,-10.7993771846112,-3.66282287161766,-28.5188768618651,0.0187897849828005,-0.0158183872699738,0.0576378479599953
-20.5764016802749,-10.7993771846112,-3.66282287161766,-28.5188768618651,0.0190615877509117,-0.0160497203469276,0.0585048422217369
-20.5764016802749,-10.7993771846112,-3.66282287161766,-28.5188768618651,0.0193325821310282,-0.0162804462015629,0.0593703761696815
-20.5764016802749,-10.7993771846112,-3.66282287161766,-28.5188768618651,0.0196027718484402,-0.0165105666965246,0.0602344535291195
-20.5764016802749,-10.7993771846112,-3.66282287161766,-28.5188768618651,0.0198721569031477,-0.0167400818318129,0.0610970743000507
-20.5764016802749,-10.7993771846112,-3.66282287161766,-28.5188768618651,0.0201407372951508,-0.0169689934700727,0.0619582422077656
-20.5764016802749,-10.7993771846112,-3.66282287161766,-28.5188768618651,0.0204085148870945,-0.0171972997486591,0.0628179609775543
-20.5764016802749,-10.7993771846112,-3.66282287161766,-28.5188768618651,0.0206754896789789,-0.0174250025302172,0.0636762231588364
-20.5764016802749,-10.7993771846112,-3.66282287161766,-28.5188768618651,0.0209416635334492,-0.017652103677392,0.0645330399274826
-20.5764016802749,-10.7993771846112,-3.66282287161766,-28.5188768618651,0.0212070364505053,-0.0178786013275385,0.065388411283493
-20.5764016802749,-10.7993771846112,-3.66282287161766,-28.5188768618651,0.0214716102927923,-0.0181044973433018,0.0662423372268677
-20.5764016802749,-10.7993771846112,-3.66282287161766,-28.5188768618651,0.0217353850603104,-0.0183297917246819,0.0670948177576065
-20.5764016802749,-10.7993771846112,-3.66282287161766,-28.5188768618651,0.0219983626157045,-0.0185544844716787,0.0679458528757095
-20.5764016802749,-10.7993771846112,-3.66282287161766,-28.5188768618651,0.0222605429589748,-0.0187785774469376,0.0687954500317574
-20.5764016802749,-10.7993771846112,-3.66282287161766,-28.5188768618651,0.0225219279527664,-0.0190020706504583,0.06964360922575
-20.5764016802749,-10.7993771846112,-3.66282287161766,-28.5188768618651,0.0227825175970793,-0.0192249640822411,0.0704903304576874
-20.5764016802749,-10.7993771846112,-3.66282287161766,-28.5188768618651,0.0230423118919134,-0.0194472577422857,0.0713356137275696
-20.5764016802749,-10.7993771846112,-3.66282287161766,-28.5188768618651,0.023301312699914,-0.0196689534932375,0.0721794664859772
-20.5764016802749,-10.7993771846112,-3.66282287161766,-28.5188768618651,0.0235595218837261,-0.0198900513350964,0.0730218812823296
-20.5764016802749,-10.7993771846112,-3.66282287161766,-28.5188768618651,0.0238169394433498,-0.0201105512678623,0.0738628655672073
-20.5764016802749,-10.7993771846112,-3.66282287161766,-28.5188768618651,0.0240735672414303,-0.0203304532915354,0.0747024267911911
-20.5764016802749,-10.7993771846112,-3.66282287161766,-28.5188768618651,0.0243294052779675,-0.0205497592687607,0.0755405575037003
-20.5764016802749,-10.7993771846112,-3.66282287161766,-28.5188768618651,0.0245844535529613,-0.0207684691995382,0.0763772651553154
-20.5764016802749,-10.7993771846112,-3.66282287161766,-28.5188768618651,0.0248387139290571,-0.0209865849465132,0.0772125497460365
-20.5764016802749,-10.7993771846112,-3.66282287161766,-28.5188768618651,0.0250921864062548,-0.0212041046470404,0.0780464112758636
-20.5764016802749,-10.7993771846112,-3.66282287161766,-28.5188768618651,0.0253448728471994,-0.021421030163765,0.0788788497447968
-20.5764016802749,-10.7993771846112,-3.66282287161766,-28.5188768618651,0.0255967751145363,-0.0216373614966869,0.0797098726034164
-20.5764016802749,-10.7993771846112,-3.66282287161766,-28.5188768618651,0.0258478932082653,-0.0218531005084515,0.0805394798517227
-20.5764016802749,-10.7993771846112,-3.66282287161766,-28.5188768618651,0.0260982271283865,-0.0220682453364134,0.0813676714897156
-20.5764016802749,-10.7993771846112,-3.66282287161766,-28.5188768618651,0.026347778737545,-0.0222827978432179,0.082194447517395
-20.5764016802749,-10.7993771846112,-3.66282287161766,-28.5188768618651,0.0265965480357409,-0.0224967580288649,0.0830198153853416
-20.5764016802749,-10.7993771846112,-3.66282287161766,-28.5188768618651,0.0268445368856192,-0.0227101277559996,0.0838437676429749
-20.5764016802749,-10.7993771846112,-3.66282287161766,-28.5188768618651,0.0270917452871799,-0.0229229051619768,0.0846663117408752
-20.5764016802749,-10.7993771846112,-3.66282287161766,-28.5188768618651,0.0273381751030684,-0.0231350921094418,0.0854874476790428
-20.5764016802749,-10.7993771846112,-3.66282287161766,-28.5188768618651,0.0275838263332844,-0.0233466904610395,0.0863071829080582
-20.5764016802749,-10.7993771846112,-3.66282287161766,-28.5188768618651,0.0278287008404732,-0.023557698354125,0.0871255099773407
-20.5764016802749,-10.7993771846112,-3.66282287161766,-28.5188768618651,0.0280727986246347,-0.0237681176513433,0.087942436337471
-20.5764016802749,-10.7993771846112,-3.66282287161766,-28.5188768618651,0.0283161215484142,-0.0239779483526945,0.0887579619884491
-20.5764016802749,-10.7993771846112,-3.66282287161766,-28.5188768618651,0.0285586696118116,-0.0241871923208237,0.0895720943808556
-20.5764016802749,-10.7993771846112,-3.66282287161766,-28.5188768618651,0.028800442814827,-0.0243958476930857,0.0903848260641098
-20.5764016802749,-10.7993771846112,-3.66282287161766,-28.5188768618651,0.0290414430201054,-0.0246039163321257,0.0911961644887924
-20.5764016802749,-10.7993771846112,-3.66282287161766,-28.5188768618651,0.029281672090292,-0.0248113982379436,0.0920061096549034
-20.5764016802749,-10.7993771846112,-3.66282287161766,-28.5188768618651,0.0295211300253868,-0.0250182952731848,0.0928146615624428
-20.5764016802749,-10.7993771846112,-3.66282287161766,-28.5188768618651,0.029759818688035,-0.0252246055752039,0.0936218202114105
-20.5764016802749,-10.7993771846112,-3.66282287161766,-28.5188768618651,0.0299977362155914,-0.0254303310066462,0.0944275930523872
-20.5764016802749,-10.7993771846112,-3.66282287161766,-28.5188768618651,0.0302348863333464,-0.0256354715675116,0.0952319800853729
-20.5764016802749,-10.7993771846112,-3.66282287161766,-28.5188768618651,0.0304712690412998,-0.0258400291204453,0.0960349813103676
-20.5764016802749,-10.7993771846112,-3.66282287161766,-28.5188768618651,0.0307068843394518,-0.0260440036654472,0.0968365967273712
-20.5764016802749,-10.7993771846112,-3.66282287161766,-28.5188768618651,0.0309417340904474,-0.0262473952025175,0.0976368337869644
-20.5764016802749,-10.7993771846112,-3.66282287161766,-28.5188768618651,0.0311758182942867,-0.0264502037316561,0.0984356924891472
-20.5764016802749,-10.7993771846112,-3.66282287161766,-28.5188768618651,0.03140914067626,-0.0266524311155081,0.0992331728339195
-20.5764016802749,-10.7993771846112,-3.66282287161766,-28.5188768618651,0.0316416993737221,-0.0268540754914284,0.100029274821281
-20.5764016802749,-10.7993771846112,-3.66282287161766,-28.5188768618651,0.031873494386673,-0.0270551387220621,0.100823998451233
-20.5764016802749,-10.7993771846112,-3.66282287161766,-28.5188768618651,0.032104529440403,-0.0272556226700544,0.101617351174355
-20.5764016802749,-10.7993771846112,-3.66282287161766,-28.5188768618651,0.0323348008096218,-0.0274555254727602,0.102409332990646
-20.5764016802749,-10.7993771846112,-3.66282287161766,-28.5188768618651,0.03256431594491,-0.0276548489928246,0.103199943900108
-20.5764016802749,-10.7993771846112,-3.66282287161766,-28.5188768618651,0.0327930711209774,-0.0278535932302475,0.10398918390274
-20.5764016802749,-10.7993771846112,-3.66282287161766,-28.5188768618651,0.0330210663378239,-0.0280517600476742,0.104777060449123
-20.5764016802749,-10.7993771846112,-3.66282287161766,-28.5188768618651,0.0332483053207397,-0.0282493494451046,0.105563566088676
-20.5764016802749,-10.7993771846112,-3.66282287161766,-28.5188768618651,0.033474788069725,-0.0284463614225388,0.10634870827198
-20.5764016802749,-10.7993771846112,-3.66282287161766,-28.5188768618651,0.0337005145847797,-0.0286427959799767,0.107132494449615
-20.5764016802749,-10.7993771846112,-3.66282287161766,-28.5188768618651,0.0339254885911942,-0.0288386531174183,0.107914917171001
-20.5764016802749,-10.7993771846112,-3.66282287161766,-28.5188768618651,0.0341497100889683,-0.0290339346975088,0.108695983886719
-20.5764016802749,-10.7993771846112,-3.66282287161766,-28.5188768618651,0.0343731790781021,-0.0292286407202482,0.109475687146187
-20.5764016802749,-10.7993771846112,-3.66282287161766,-28.5188768618651,0.0345958955585957,-0.0294227711856365,0.110254041850567
-20.5764016802749,-10.7993771846112,-3.66282287161766,-28.5188768618651,0.0348178595304489,-0.0296163279563189,0.111031040549278
-20.5764016802749,-10.7993771846112,-3.66282287161766,-28.5188768618651,0.0350390747189522,-0.0298093110322952,0.111806683242321
-20.5764016802749,-10.7993771846112,-3.66282287161766,-28.5188768618651,0.0352595411241055,-0.0300017204135656,0.112580977380276
-20.5764016802749,-10.7993771846112,-3.66282287161766,-28.5188768618651,0.0354792587459087,-0.0301935561001301,0.113353922963142
-20.5764016802749,-10.7993771846112,-3.66282287161766,-28.5188768618651,0.035698227584362,-0.0303848199546337,0.114125519990921
-20.5764016802749,-10.7993771846112,-3.66282287161766,-28.5188768618651,0.0359164513647556,-0.0305755101144314,0.114895775914192
-20.5764016802749,-10.7993771846112,-3.66282287161766,-28.5188768618651,0.0361339263617992,-0.0307656303048134,0.115664683282375
-20.5764016802749,-10.7993771846112,-3.66282287161766,-28.5188768618651,0.0363506563007832,-0.0309551786631346,0.116432249546051
-20.5764016802749,-10.7993771846112,-3.66282287161766,-28.5188768618651,0.0365666449069977,-0.0311441570520401,0.117198474705219
-20.5764016802749,-10.7993771846112,-3.66282287161766,-28.5188768618651,0.0367818884551525,-0.0313325636088848,0.11796335875988
-20.5764016802749,-10.7993771846112,-3.66282287161766,-28.5188768618651,0.0369963906705379,-0.0315204001963139,0.118726909160614
-20.5764016802749,-10.7993771846112,-3.66282287161766,-28.5188768618651,0.037210151553154,-0.0317076705396175,0.119489125907421
-20.5764016802749,-10.7993771846112,-3.66282287161766,-28.5188768618651,0.0374231711030006,-0.0318943709135056,0.120250001549721
-20.5764016802749,-10.7993771846112,-3.66282287161766,-28.5188768618651,0.0376354530453682,-0.0320805013179779,0.121009550988674
-20.5764016802749,-10.7993771846112,-3.66282287161766,-28.5188768618651,0.0378469936549664,-0.0322660654783249,0.121767766773701
-20.5764016802749,-10.7993771846112,-3.66282287161766,-28.5188768618651,0.0380577966570854,-0.0324510633945465,0.122524656355381
-20.5764016802749,-10.7993771846112,-3.66282287161766,-28.5188768618651,0.0382678620517254,-0.0326354950666428,0.123280212283134
-20.5764016802749,-10.7993771846112,-3.66282287161766,-28.5188768618651,0.0384771935641766,-0.0328193604946136,0.124034442007542
-20.5764016802749,-10.7993771846112,-3.66282287161766,-28.5188768618651,0.0386857874691486,-0.0330026596784592,0.124787352979183
-20.5764016802749,-10.7993771846112,-3.66282287161766,-28.5188768618651,0.0388936474919319,-0.0331853926181793,0.125538945198059
-20.5764016802749,-10.7993771846112,-3.66282287161766,-28.5188768618651,0.0391007736325264,-0.0333675593137741,0.126289203763008
-20.5764016802749,-10.7993771846112,-3.66282287161766,-28.5188768618651,0.0393071658909321,-0.0335491634905338,0.127038151025772
-20.5764016802749,-10.7993771846112,-3.66282287161766,-28.5188768618651,0.0395128279924393,-0.0337302051484585,0.12778577208519
-20.5764016802749,-10.7993771846112,-3.66282287161766,-28.5188768618651,0.039717759937048,-0.0339106805622578,0.128532081842422
-20.5764016802749,-10.7993771846112,-3.66282287161766,-28.5188768618651,0.0399219617247581,-0.034090593457222,0.12927708029747
-20.5764016802749,-10.7993771846112,-3.66282287161766,-28.5188768618651,0.0401254333555698,-0.0342699438333511,0.130020767450333
-20.5764016802749,-10.7993771846112,-3.66282287161766,-28.5188768618651,0.040328174829483,-0.0344487354159355,0.13076314330101
-20.5764016802749,-10.7993771846112,-3.66282287161766,-28.5188768618651,0.040530189871788,-0.0346269644796848,0.131504207849503
-20.5764016802749,-10.7993771846112,-3.66282287161766,-28.5188768618651,0.0407314784824848,-0.0348046310245991,0.13224396109581
-20.5764016802749,-10.7993771846112,-3.66282287161766,-28.5188768618651,0.0409320406615734,-0.0349817387759686,0.132982403039932
-20.5764016802749,-10.7993771846112,-3.66282287161766,-28.5188768618651,0.0411318764090538,-0.0351582877337933,0.133719548583031
-20.5764016802749,-10.7993771846112,-3.66282287161766,-28.5188768618651,0.0413309894502163,-0.0353342741727829,0.134455382823944
-20.5764016802749,-10.7993771846112,-3.66282287161766,-28.5188768618651,0.0415293760597706,-0.0355097018182278,0.135189920663834
-20.5764016802749,-10.7993771846112,-3.66282287161766,-28.5188768618651,0.0417270436882973,-0.0356845706701279,0.135923162102699
-20.5764016802749,-10.7993771846112,-3.66282287161766,-28.5188768618651,0.0419239886105061,-0.0358588844537735,0.13665509223938
-20.5764016802749,-10.7993771846112,-3.66282287161766,-28.5188768618651,0.0421202108263969,-0.0360326394438744,0.137385725975037
-20.5764016802749,-10.7993771846112,-3.66282287161766,-28.5188768618651,0.0423157140612602,-0.0362058393657207,0.138115063309669
-20.5764016802749,-10.7993771846112,-3.66282287161766,-28.5188768618651,0.0425104983150959,-0.0363784804940224,0.13884311914444
-20.5764016802749,-10.7993771846112,-3.66282287161766,-28.5188768618651,0.042704563587904,-0.0365505665540695,0.139569878578186
-20.5764016802749,-10.7993771846112,-3.66282287161766,-28.5188768618651,0.0428979098796844,-0.0367220975458622,0.140295341610909
-20.5764016802749,-10.7993771846112,-3.66282287161766,-28.5188768618651,0.0430905409157276,-0.0368930734694004,0.141019523143768
-20.5764016802749,-10.7993771846112,-3.66282287161766,-28.5188768618651,0.0432824566960335,-0.0370634943246841,0.141742408275604
-20.5764016802749,-10.7993771846112,-3.66282287161766,-28.5188768618651,0.043473657220602,-0.0372333601117134,0.142464011907578
-20.5764016802749,-10.7993771846112,-3.66282287161766,-28.5188768618651,0.0436641424894333,-0.0374026745557785,0.143184334039688
-20.5764016802749,-10.7993771846112,-3.66282287161766,-28.5188768618651,0.0438539162278175,-0.0375714339315891,0.143903374671936
-20.5764016802749,-10.7993771846112,-3.66282287161766,-28.5188768618651,0.0440429784357548,-0.0377396419644356,0.144621133804321
-20.5764016802749,-10.7993771846112,-3.66282287161766,-28.5188768618651,0.044231329113245,-0.0379072949290276,0.145337611436844
-20.5764016802749,-10.7993771846112,-3.66282287161766,-28.5188768618651,0.0444189682602882,-0.0380743965506554,0.146052807569504
-20.5764016802749,-10.7993771846112,-3.66282287161766,-28.5188768618651,0.0446058958768845,-0.038240946829319,0.146766737103462
-20.5764016802749,-10.7993771846112,-3.66282287161766,-28.5188768618651,0.044792115688324,-0.0384069494903088,0.147479385137558
-20.5764016802749,-10.7993771846112,-3.66282287161766,-28.5188768618651,0.0449776276946068,-0.0385724008083344,0.148190766572952
-20.5764016802749,-10.7993771846112,-3.66282287161766,-28.5188768618651,0.0451624318957329,-0.0387373007833958,0.148900866508484
-20.5764016802749,-10.7993771846112,-3.66282287161766,-28.5188768618651,0.0453465282917023,-0.0389016531407833,0.149609699845314
-20.5764016802749,-10.7993771846112,-3.66282287161766,-28.5188768618651,0.0455299206078053,-0.0390654541552067,0.150317266583443
-20.5764016802749,-10.7993771846112,-3.66282287161766,-28.5188768618651,0.0457126088440418,-0.0392287075519562,0.15102356672287
-20.5764016802749,-10.7993771846112,-3.66282287161766,-28.5188768618651,0.045894593000412,-0.0393914133310318,0.151728600263596
-20.5764016802749,-10.7993771846112,-3.66282287161766,-28.5188768618651,0.0460758730769157,-0.0395535714924335,0.15243236720562
-20.5764016802749,-10.7993771846112,-3.66282287161766,-28.5188768618651,0.0462564490735531,-0.0397151820361614,0.153134882450104
-20.5764016802749,-10.7993771846112,-3.66282287161766,-28.5188768618651,0.0464363247156143,-0.0398762486875057,0.153836131095886
-20.5764016802749,-10.7993771846112,-3.66282287161766,-28.5188768618651,0.0466155000030994,-0.0400367677211761,0.154536113142967
-20.5764016802749,-10.7993771846112,-3.66282287161766,-28.5188768618651,0.0467939749360085,-0.040196742862463,0.155234843492508
-20.5764016802749,-10.7993771846112,-3.66282287161766,-28.5188768618651,0.0469717532396317,-0.040356170386076,0.155932322144508
-20.5764016802749,-10.7993771846112,-3.66282287161766,-28.5188768618651,0.0471488311886787,-0.0405150540173054,0.156628549098969
-20.5764016802749,-10.7993771846112,-3.66282287161766,-28.5188768618651,0.04732521250844,-0.0406733937561512,0.157323524355888
-20.5764016802749,-10.7993771846112,-3.66282287161766,-28.5188768618651,0.0475008971989155,-0.0408311896026134,0.158017247915268
-20.5764016802749,-10.7993771846112,-3.66282287161766,-28.5188768618651,0.0476758852601051,-0.0409884452819824,0.158709719777107
-20.5764016802749,-10.7993771846112,-3.66282287161766,-28.5188768618651,0.0478501804172993,-0.0411451570689678,0.159400939941406
-20.5764016802749,-10.7993771846112,-3.66282287161766,-28.5188768618651,0.0480237826704979,-0.0413013249635696,0.160090908408165
-20.5764016802749,-10.7993771846112,-3.66282287161766,-28.5188768618651,0.0481966882944107,-0.0414569526910782,0.160779640078545
-20.5764016802749,-10.7993771846112,-3.66282287161766,-28.5188768618651,0.0483689047396183,-0.0416120402514935,0.161467120051384
-20.5764016802749,-10.7993771846112,-3.66282287161766,-28.5188768618651,0.0485404282808304,-0.0417665839195251,0.162153363227844
-20.5764016802749,-10.7993771846112,-3.66282287161766,-28.5188768618651,0.0487112626433373,-0.0419205874204636,0.162838369607925
-20.5764016802749,-10.7993771846112,-3.66282287161766,-28.5188768618651,0.0488814041018486,-0.042074054479599,0.163522139191628
-20.5764016802749,-10.7993771846112,-3.66282287161766,-28.5188768618651,0.049050860106945,-0.0422269813716412,0.164204671978951
-20.5764016802749,-10.7993771846112,-3.66282287161766,-28.5188768618651,0.0492196269333363,-0.04237936809659,0.164885967969894
-20.5764016802749,-10.7993771846112,-3.66282287161766,-28.5188768618651,0.0493877045810223,-0.0425312183797359,0.165566027164459
-20.5764016802749,-10.7993771846112,-3.66282287161766,-28.5188768618651,0.0495550967752934,-0.0426825284957886,0.166244849562645
-20.5764016802749,-10.7993771846112,-3.66282287161766,-28.5188768618651,0.0497218035161495,-0.0428333021700382,0.166922450065613
-20.5764016802749,-10.7993771846112,-3.66282287161766,-28.5188768618651,0.0498878248035908,-0.0429835394024849,0.167598813772202
-20.5764016802749,-10.7993771846112,-3.66282287161766,-28.5188768618651,0.0500531643629074,-0.0431332401931286,0.168273955583572
-20.5764016802749,-10.7993771846112,-3.66282287161766,-28.5188768618651,0.0502178184688091,-0.0432824045419693,0.168947875499725
-20.5764016802749,-10.7993771846112,-3.66282287161766,-28.5188768618651,0.0503817908465862,-0.043431032449007,0.16962057352066
-20.5764016802749,-10.7993771846112,-3.66282287161766,-28.5188768618651,0.0505450814962387,-0.0435791239142418,0.170292049646378
-20.5764016802749,-10.7993771846112,-3.66282287161766,-28.5188768618651,0.0507076904177666,-0.0437266826629639,0.170962303876877
-20.5764016802749,-10.7993771846112,-3.66282287161766,-28.5188768618651,0.0508696213364601,-0.0438737086951733,0.171631336212158
-20.5764016802749,-10.7993771846112,-3.66282287161766,-28.5188768618651,0.0510308742523193,-0.0440201982855797,0.172299146652222
-20.5764016802749,-10.7993771846112,-3.66282287161766,-28.5188768618651,0.0511914491653442,-0.0441661551594734,0.172965735197067
-20.5764016802749,-10.7993771846112,-3.66282287161766,-28.5188768618651,0.0513513460755348,-0.0443115793168545,0.173631116747856
-20.5764016802749,-10.7993771846112,-3.66282287161766,-28.5188768618651,0.0515105649828911,-0.0444564707577229,0.174295276403427
-20.5764016802749,-10.7993771846112,-3.66282287161766,-28.5188768618651,0.0516691096127033,-0.0446008332073689,0.174958229064941
-20.5764016802749,-10.7993771846112,-3.66282287161766,-28.5188768618651,0.0518269799649715,-0.0447446629405022,0.175619974732399
-20.5764016802749,-10.7993771846112,-3.66282287161766,-28.5188768618651,0.0519841760396957,-0.0448879599571228,0.1762805134058
-20.5764016802749,-10.7993771846112,-3.66282287161766,-28.5188768618651,0.0521406978368759,-0.0450307279825211,0.176939845085144
-20.5764016802749,-10.7993771846112,-3.66282287161766,-28.5188768618651,0.0522965453565121,-0.0451729670166969,0.177597969770432
-20.5764016802749,-10.7993771846112,-3.66282287161766,-28.5188768618651,0.0524517223238945,-0.0453146770596504,0.178254887461662
-20.5764016802749,-10.7993771846112,-3.66282287161766,-28.5188768618651,0.0526062287390232,-0.0454558581113815,0.178910598158836
-20.5764016802749,-10.7993771846112,-3.66282287161766,-28.5188768618651,0.0527600646018982,-0.0455965101718903,0.179565116763115
-20.5764016802749,-10.7993771846112,-3.66282287161766,-28.5188768618651,0.0529132336378098,-0.0457366332411766,0.180218428373337
-20.5764016802749,-10.7993771846112,-3.66282287161766,-28.5188768618651,0.0530657321214676,-0.0458762273192406,0.180870547890663
-20.5764016802749,-10.7993771846112,-3.66282287161766,-28.5188768618651,0.053217563778162,-0.0460152961313725,0.181521460413933
-20.5764016802749,-10.7993771846112,-3.66282287161766,-28.5188768618651,0.053368728607893,-0.046153835952282,0.182171180844307
-20.5764016802749,-10.7993771846112,-3.66282287161766,-28.5188768618651,0.0535192266106606,-0.0462918505072594,0.182819709181786
-20.5764016802749,-10.7993771846112,-3.66282287161766,-28.5188768618651,0.053669061511755,-0.0464293397963047,0.183467045426369
-20.5764016802749,-10.7993771846112,-3.66282287161766,-28.5188768618651,0.053818229585886,-0.046566303819418,0.184113189578056
-20.5764016802749,-10.7993771846112,-3.66282287161766,-28.5188768618651,0.0539667345583439,-0.0467027425765991,0.184758141636848
-20.5764016802749,-10.7993771846112,-3.66282287161766,-28.5188768618651,0.0541145764291286,-0.0468386560678482,0.185401916503906
-20.5764016802749,-10.7993771846112,-3.66282287161766,-28.5188768618651,0.0542617589235306,-0.0469740480184555,0.186044499278069
-20.5764016802749,-10.7993771846112,-3.66282287161766,-28.5188768618651,0.0544082783162594,-0.0471089147031307,0.186685904860497
-20.5764016802749,-10.7993771846112,-3.66282287161766,-28.5188768618651,0.0545541383326054,-0.0472432598471642,0.187326118350029
-20.5764016802749,-10.7993771846112,-3.66282287161766,-28.5188768618651,0.0546993389725685,-0.0473770834505558,0.187965154647827
-20.5764016802749,-10.7993771846112,-3.66282287161766,-28.5188768618651,0.0548438802361488,-0.0475103855133057,0.188603013753891
-20.5764016802749,-10.7993771846112,-3.66282287161766,-28.5188768618651,0.0549877658486366,-0.0476431660354137,0.189239695668221
-20.5764016802749,-10.7993771846112,-3.66282287161766,-28.5188768618651,0.0551309920847416,-0.04777542501688,0.189875200390816
-20.5764016802749,-10.7993771846112,-3.66282287161766,-28.5188768618651,0.055273562669754,-0.0479071624577045,0.190509527921677
-20.5764016802749,-10.7993771846112,-3.66282287161766,-28.5188768618651,0.0554154776036739,-0.0480383783578873,0.191142678260803
-20.5764016802749,-10.7993771846112,-3.66282287161766,-28.5188768618651,0.0555567406117916,-0.0481690764427185,0.191774666309357
-20.5764016802749,-10.7993771846112,-3.66282287161766,-28.5188768618651,0.0556973479688168,-0.048299252986908,0.192405477166176
-20.5764016802749,-10.7993771846112,-3.66282287161766,-28.5188768618651,0.0558373034000397,-0.0484289117157459,0.193035125732422
-20.5764016802749,-10.7993771846112,-3.66282287161766,-28.5188768618651,0.0559766069054604,-0.0485580526292324,0.193663597106934
-20.5764016802749,-10.7993771846112,-3.66282287161766,-28.5188768618651,0.0561152584850788,-0.0486866757273674,0.194290906190872
-20.5764016802749,-10.7993771846112,-3.66282287161766,-28.5188768618651,0.0562532618641853,-0.0488147810101509,0.194917052984238
-20.5764016802749,-10.7993771846112,-3.66282287161766,-28.5188768618651,0.0563906133174896,-0.0489423684775829,0.19554203748703
-20.5764016802749,-10.7993771846112,-3.66282287161766,-28.5188768618651,0.056527316570282,-0.0490694418549538,0.196165859699249
-20.5764016802749,-10.7993771846112,-3.66282287161766,-28.5188768618651,0.0566633716225624,-0.0491959974169731,0.196788519620895
-20.5764016802749,-10.7993771846112,-3.66282287161766,-28.5188768618651,0.0567987784743309,-0.0493220388889313,0.197410017251968
-20.5764016802749,-10.7993771846112,-3.66282287161766,-28.5188768618651,0.0569335408508778,-0.0494475625455379,0.198030367493629
-20.5764016802749,-10.7993771846112,-3.66282287161766,-28.5188768618651,0.0570676550269127,-0.0495725721120834,0.198649555444717
-20.5764016802749,-10.7993771846112,-3.66282287161766,-28.5188768618651,0.057201124727726,-0.0496970675885677,0.199267596006393
-20.5764016802749,-10.7993771846112,-3.66282287161766,-28.5188768618651,0.0573339499533176,-0.0498210489749908,0.199884474277496
-20.5764016802749,-10.7993771846112,-3.66282287161766,-28.5188768618651,0.057466134428978,-0.0499445199966431,0.200500205159187
-20.5764016802749,-10.7993771846112,-3.66282287161766,-28.5188768618651,0.0575976744294167,-0.0500674769282341,0.201114788651466
-20.5764016802749,-10.7993771846112,-3.66282287161766,-28.5188768618651,0.057728573679924,-0.0501899197697639,0.201728224754333
-20.5764016802749,-10.7993771846112,-3.66282287161766,-28.5188768618651,0.0578588321805,-0.0503118522465229,0.202340513467789
-20.5764016802749,-10.7993771846112,-3.66282287161766,-28.5188768618651,0.0579884499311447,-0.050433274358511,0.202951654791832
-20.5764016802749,-10.7993771846112,-3.66282287161766,-28.5188768618651,0.0581174306571484,-0.0505541823804379,0.203561663627625
-20.5764016802749,-10.7993771846112,-3.66282287161766,-28.5188768618651,0.0582457706332207,-0.0506745800375938,0.204170525074005
-20.5764016802749,-10.7993771846112,-3.66282287161766,-28.5188768618651,0.0583734735846519,-0.0507944710552692,0.204778239130974
-20.5764016802749,-10.7993771846112,-3.66282287161766,-28.5188768618651,0.0585005395114422,-0.0509138517081738,0.205384820699692
-20.5764016802749,-10.7993771846112,-3.66282287161766,-28.5188768618651,0.0586269721388817,-0.0510327219963074,0.205990269780159
-20.5764016802749,-10.7993771846112,-3.66282287161766,-28.5188768618651,0.0587527677416801,-0.0511510819196701,0.206594571471214
-20.5764016802749,-10.7993771846112,-3.66282287161766,-28.5188768618651,0.0588779300451279,-0.0512689352035522,0.207197740674019
-20.5764016802749,-10.7993771846112,-3.66282287161766,-28.5188768618651,0.0590024590492249,-0.0513862818479538,0.207799777388573
-20.5764016802749,-10.7993771846112,-3.66282287161766,-28.5188768618651,0.0591263547539711,-0.0515031218528748,0.208400681614876
-20.5764016802749,-10.7993771846112,-3.66282287161766,-28.5188768618651,0.0592496171593666,-0.0516194514930248,0.209000468254089
-20.5764016802749,-10.7993771846112,-3.66282287161766,-28.5188768618651,0.0593722499907017,-0.0517352744936943,0.209599122405052
-20.5764016802749,-10.7993771846112,-3.66282287161766,-28.5188768618651,0.059494249522686,-0.0518505945801735,0.210196644067764
-20.5764016802749,-10.7993771846112,-3.66282287161766,-28.5188768618651,0.0596156194806099,-0.0519654080271721,0.210793048143387
-20.5764016802749,-10.7993771846112,-3.66282287161766,-28.5188768618651,0.0597363635897636,-0.0520797148346901,0.211388319730759
-20.5764016802749,-10.7993771846112,-3.66282287161766,-28.5188768618651,0.0598564781248569,-0.0521935187280178,0.211982473731041
-20.5764016802749,-10.7993771846112,-3.66282287161766,-28.5188768618651,0.0599759668111801,-0.0523068197071552,0.212575510144234
-20.5764016802749,-10.7993771846112,-3.66282287161766,-28.5188768618651,0.0600948259234428,-0.0524196140468121,0.213167428970337
-20.5764016802749,-10.7993771846112,-3.66282287161766,-28.5188768618651,0.0602130591869354,-0.0525319054722786,0.213758230209351
-20.5764016802749,-10.7993771846112,-3.66282287161766,-28.5188768618651,0.0603306703269482,-0.0526436939835548,0.214347913861275
-20.5764016802749,-10.7993771846112,-3.66282287161766,-28.5188768618651,0.0604476556181908,-0.0527549795806408,0.214936479926109
-20.5764016802749,-10.7993771846112,-3.66282287161766,-28.5188768618651,0.0605640187859535,-0.0528657659888268,0.215523928403854
-20.5764016802749,-10.7993771846112,-3.66282287161766,-28.5188768618651,0.0606797598302364,-0.0529760494828224,0.216110274195671
-20.5764016802749,-10.7993771846112,-3.66282287161766,-28.5188768618651,0.0607948787510395,-0.0530858337879181,0.216695502400398
-20.5764016802749,-10.7993771846112,-3.66282287161766,-28.5188768618651,0.0609093755483627,-0.0531951151788235,0.217279627919197
-20.5764016802749,-10.7993771846112,-3.66282287161766,-28.5188768618651,0.0610232539474964,-0.0533038973808289,0.217862635850906
-20.5764016802749,-10.7993771846112,-3.66282287161766,-28.5188768618651,0.0611365102231503,-0.0534121803939343,0.218444541096687
-20.5764016802749,-10.7993771846112,-3.66282287161766,-28.5188768618651,0.0612491481006145,-0.0535199642181396,0.21902534365654
-20.5764016802749,-10.7993771846112,-3.66282287161766,-28.5188768618651,0.0613611713051796,-0.0536272488534451,0.219605043530464
-20.5764016802749,-10.7993771846112,-3.66282287161766,-28.5188768618651,0.0614725761115551,-0.0537340342998505,0.22018364071846
-20.5764016802749,-10.7993771846112,-3.66282287161766,-28.5188768618651,0.0615833662450314,-0.0538403205573559,0.220761135220528
-20.5764016802749,-10.7993771846112,-3.66282287161766,-28.5188768618651,0.0616935379803181,-0.0539461113512516,0.221337527036667
-20.5764016802749,-10.7993771846112,-3.66282287161766,-28.5188768618651,0.0618030950427055,-0.0540514066815376,0.221912831068039
-20.5764016802749,-10.7993771846112,-3.66282287161766,-28.5188768618651,0.0619120411574841,-0.0541562028229237,0.222487032413483
-20.5764016802749,-10.7993771846112,-3.66282287161766,-28.5188768618651,0.0620203725993633,-0.0542605035007,0.223060145974159
-20.5764016802749,-10.7993771846112,-3.66282287161766,-28.5188768618651,0.0621280930936337,-0.0543643087148666,0.223632156848907
-20.5764016802749,-10.7993771846112,-3.66282287161766,-28.5188768618651,0.0622351989150047,-0.0544676184654236,0.224203079938889
-20.5764016802749,-10.7993771846112,-3.66282287161766,-28.5188768618651,0.0623416975140572,-0.0545704327523708,0.224772915244102
-20.5764016802749,-10.7993771846112,-3.66282287161766,-28.5188768618651,0.0624475851655006,-0.0546727553009987,0.225341662764549
-20.5764016802749,-10.7993771846112,-3.66282287161766,-28.5188768618651,0.0625528618693352,-0.0547745823860168,0.225909322500229
-20.5764016802749,-10.7993771846112,-3.66282287161766,-28.5188768618651,0.0626575276255608,-0.0548759177327156,0.226475894451141
-20.5764016802749,-10.7993771846112,-3.66282287161766,-28.5188768618651,0.062761589884758,-0.0549767576158047,0.227041393518448
-20.5764016802749,-10.7993771846112,-3.66282287161766,-28.5188768618651,0.0628650411963463,-0.0550771057605743,0.227605804800987
-20.5764016802749,-10.7993771846112,-3.66282287161766,-28.5188768618651,0.0629678890109062,-0.0551769621670246,0.228169128298759
-20.5764016802749,-10.7993771846112,-3.66282287161766,-28.5188768618651,0.0630701333284378,-0.0552763268351555,0.228731378912926
-20.5764016802749,-10.7993771846112,-3.66282287161766,-28.5188768618651,0.063171774148941,-0.055375199764967,0.229292556643486
-20.5764016802749,-10.7993771846112,-3.66282287161766,-28.5188768618651,0.0632728114724159,-0.055473580956459,0.229852646589279
-20.5764016802749,-10.7993771846112,-3.66282287161766,-28.5188768618651,0.0633732452988625,-0.055571474134922,0.230411663651466
-20.5764016802749,-10.7993771846112,-3.66282287161766,-28.5188768618651,0.0634730756282806,-0.0556688755750656,0.230969607830048
-20.5764016802749,-10.7993771846112,-3.66282287161766,-28.5188768618651,0.0635723024606705,-0.0557657890021801,0.231526479125023
-20.5764016802749,-10.7993771846112,-3.66282287161766,-28.5188768618651,0.0636709332466125,-0.0558622144162655,0.232082277536392
-20.5764016802749,-10.7993771846112,-3.66282287161766,-28.5188768618651,0.0637689605355263,-0.0559581518173218,0.232637017965317
-20.5764016802749,-10.7993771846112,-3.66282287161766,-28.5188768618651,0.0638663917779922,-0.0560535974800587,0.233190685510635
-20.5764016802749,-10.7993771846112,-3.66282287161766,-28.5188768618651,0.0639632195234299,-0.0561485588550568,0.233743280172348
-20.5764016802749,-10.7993771846112,-3.66282287161766,-28.5188768618651,0.0640594512224197,-0.0562430322170258,0.234294816851616
-20.5764016802749,-10.7993771846112,-3.66282287161766,-28.5188768618651,0.0641550868749619,-0.0563370175659657,0.234845280647278
-20.5764016802749,-10.7993771846112,-3.66282287161766,-28.5188768618651,0.0642501264810562,-0.0564305186271667,0.235394686460495
-20.5764016802749,-10.7993771846112,-3.66282287161766,-28.5188768618651,0.0643445700407028,-0.0565235316753387,0.235943034291267
-20.5764016802749,-10.7993771846112,-3.66282287161766,-28.5188768618651,0.0644384175539017,-0.0566160604357719,0.236490324139595
-20.5764016802749,-10.7993771846112,-3.66282287161766,-28.5188768618651,0.0645316764712334,-0.0567081049084663,0.237036556005478
-20.5764016802749,-10.7993771846112,-3.66282287161766,-28.5188768618651,0.0646243393421173,-0.0567996650934219,0.237581729888916
-20.5764016802749,-10.7993771846112,-3.66282287161766,-28.5188768618651,0.0647164136171341,-0.0568907409906387,0.238125845789909
-20.5764016802749,-10.7993771846112,-3.66282287161766,-28.5188768618651,0.0648078918457031,-0.0569813326001167,0.238668918609619
-20.5764016802749,-10.7993771846112,-3.66282287161766,-28.5188768618651,0.064898781478405,-0.0570714399218559,0.239210933446884
-20.5764016802749,-10.7993771846112,-3.66282287161766,-28.5188768618651,0.0649890825152397,-0.0571610666811466,0.239751890301704
-20.5764016802749,-10.7993771846112,-3.66282287161766,-28.5188768618651,0.0650787949562073,-0.0572502091526985,0.240291804075241
-20.5764016802749,-10.7993771846112,-3.66282287161766,-28.5188768618651,0.0651679188013077,-0.0573388710618019,0.240830674767494
-20.5764016802749,-10.7993771846112,-3.66282287161766,-28.5188768618651,0.0652564540505409,-0.0574270486831665,0.241368487477303
-20.5764016802749,-10.7993771846112,-3.66282287161766,-28.5188768618651,0.065344400703907,-0.0575147457420826,0.241905257105827
-20.5764016802749,-10.7993771846112,-3.66282287161766,-28.5188768618651,0.0654317662119865,-0.0576019622385502,0.242440983653069
-20.5764016802749,-10.7993771846112,-3.66282287161766,-28.5188768618651,0.0655185431241989,-0.0576886981725693,0.242975667119026
-20.5764016802749,-10.7993771846112,-3.66282287161766,-28.5188768618651,0.0656047388911247,-0.0577749572694302,0.243509322404861
-20.5764016802749,-10.7993771846112,-3.66282287161766,-28.5188768618651,0.0656903460621834,-0.0578607358038425,0.244041934609413
-20.5764016802749,-10.7993771846112,-3.66282287161766,-28.5188768618651,0.0657753720879555,-0.0579460337758064,0.244573503732681
-20.5764016802749,-10.7993771846112,-3.66282287161766,-28.5188768618651,0.065859816968441,-0.0580308549106121,0.245104044675827
-20.5764016802749,-10.7993771846112,-3.66282287161766,-28.5188768618651,0.06594368070364,-0.0581151992082596,0.245633542537689
-20.5764016802749,-10.7993771846112,-3.66282287161766,-28.5188768618651,0.0660269632935524,-0.0581990666687489,0.246162012219429
-20.5764016802749,-10.7993771846112,-3.66282287161766,-28.5188768618651,0.0661096647381783,-0.0582824572920799,0.246689453721046
-20.5764016802749,-10.7993771846112,-3.66282287161766,-28.5188768618651,0.0661917850375175,-0.0583653710782528,0.247215867042542
-20.5764016802749,-10.7993771846112,-3.66282287161766,-28.5188768618651,0.0662733316421509,-0.0584478080272675,0.247741237282753
-20.5764016802749,-10.7993771846112,-3.66282287161766,-28.5188768618651,0.0663542971014977,-0.0585297681391239,0.248265579342842
-20.5764016802749,-10.7993771846112,-3.66282287161766,-28.5188768618651,0.0664346888661385,-0.0586112514138222,0.24878890812397
-20.5764016802749,-10.7993771846112,-3.66282287161766,-28.5188768618651,0.0665145069360733,-0.0586922615766525,0.249311208724976
-20.5764016802749,-10.7993771846112,-3.66282287161766,-28.5188768618651,0.0665937438607216,-0.058772798627615,0.249832481145859
-20.5764016802749,-10.7993771846112,-3.66282287161766,-28.5188768618651,0.0666724070906639,-0.0588528588414192,0.250352740287781
-20.5764016802749,-10.7993771846112,-3.66282287161766,-28.5188768618651,0.0667504966259003,-0.0589324459433556,0.250871986150742
-20.5764016802749,-10.7993771846112,-3.66282287161766,-28.5188768618651,0.0668280124664307,-0.059011559933424,0.251390188932419
-20.5764016802749,-10.7993771846112,-3.66282287161766,-28.5188768618651,0.0669049620628357,-0.0590902008116245,0.251907378435135
-20.5764016802749,-10.7993771846112,-3.66282287161766,-28.5188768618651,0.0669813379645348,-0.0591683685779572,0.25242355465889
-20.5764016802749,-10.7993771846112,-3.66282287161766,-28.5188768618651,0.0670571401715279,-0.0592460669577122,0.252938717603683
-20.5764016802749,-10.7993771846112,-3.66282287161766,-28.5188768618651,0.0671323761343956,-0.0593232922255993,0.253452867269516
-20.5764016802749,-10.7993771846112,-3.66282287161766,-28.5188768618651,0.0672070384025574,-0.0594000481069088,0.253966003656387
-20.5764016802749,-10.7993771846112,-3.66282287161766,-28.5188768618651,0.0672811344265938,-0.0594763346016407,0.254478126764297
-20.5764016802749,-10.7993771846112,-3.66282287161766,-28.5188768618651,0.0673546642065048,-0.0595521479845047,0.254989236593246
-20.5764016802749,-10.7993771846112,-3.66282287161766,-28.5188768618651,0.0674276277422905,-0.0596274919807911,0.255499362945557
-20.5764016802749,-10.7993771846112,-3.66282287161766,-28.5188768618651,0.0675000250339508,-0.0597023665904999,0.256008476018906
-20.5764016802749,-10.7993771846112,-3.66282287161766,-28.5188768618651,0.0675718560814857,-0.0597767718136311,0.256516575813293
-20.5764016802749,-10.7993771846112,-3.66282287161766,-28.5188768618651,0.0676431208848953,-0.0598507113754749,0.25702366232872
-20.5764016802749,-10.7993771846112,-3.66282287161766,-28.5188768618651,0.0677138194441795,-0.0599241815507412,0.257529765367508
-20.5764016802749,-10.7993771846112,-3.66282287161766,-28.5188768618651,0.067783959209919,-0.0599971860647202,0.258034855127335
-20.5764016802749,-10.7993771846112,-3.66282287161766,-28.5188768618651,0.0678535327315331,-0.0600697211921215,0.258538961410522
-20.5764016802749,-10.7993771846112,-3.66282287161766,-28.5188768618651,0.0679225474596024,-0.0601417906582356,0.259042054414749
-20.5764016802749,-10.7993771846112,-3.66282287161766,-28.5188768618651,0.0679910033941269,-0.0602133944630623,0.259544163942337
-20.5764016802749,-10.7993771846112,-3.66282287161766,-28.5188768618651,0.0680588930845261,-0.0602845326066017,0.260045260190964
-20.5764016802749,-10.7993771846112,-3.66282287161766,-28.5188768618651,0.0681262239813805,-0.0603552050888538,0.260545372962952
-20.5764016802749,-10.7993771846112,-3.66282287161766,-28.5188768618651,0.0681929960846901,-0.0604254119098186,0.261044502258301
-20.5764016802749,-10.7993771846112,-3.66282287161766,-28.5188768618651,0.068259209394455,-0.0604951530694962,0.261542618274689
-20.5764016802749,-10.7993771846112,-3.66282287161766,-28.5188768618651,0.0683248713612556,-0.0605644322931767,0.262039750814438
-20.5764016802749,-10.7993771846112,-3.66282287161766,-28.5188768618651,0.0683899745345116,-0.0606332458555698,0.262535899877548
-20.5764016802749,-10.7993771846112,-3.66282287161766,-28.5188768618651,0.0684545189142227,-0.060701597481966,0.26303106546402
-20.5764016802749,-10.7993771846112,-3.66282287161766,-28.5188768618651,0.0685185119509697,-0.0607694871723652,0.263525247573853
-20.5764016802749,-10.7993771846112,-3.66282287161766,-28.5188768618651,0.0685819536447525,-0.0608369112014771,0.264018446207047
-20.5764016802749,-10.7993771846112,-3.66282287161766,-28.5188768618651,0.0686448365449905,-0.0609038732945919,0.264510661363602
-20.5764016802749,-10.7993771846112,-3.66282287161766,-28.5188768618651,0.0687071681022644,-0.060970377177,0.265001893043518
-20.5764016802749,-10.7993771846112,-3.66282287161766,-28.5188768618651,0.0687689483165741,-0.0610364191234112,0.265492141246796
-20.5764016802749,-10.7993771846112,-3.66282287161766,-28.5188768618651,0.0688301771879196,-0.0611019991338253,0.265981405973434
-20.5764016802749,-10.7993771846112,-3.66282287161766,-28.5188768618651,0.068890854716301,-0.0611671209335327,0.266469687223434
-20.5764016802749,-10.7993771846112,-3.66282287161766,-28.5188768618651,0.0689509809017181,-0.0612317807972431,0.266957014799118
-20.5764016802749,-10.7993771846112,-3.66282287161766,-28.5188768618651,0.0690105631947517,-0.0612959824502468,0.267443358898163
-20.5764016802749,-10.7993771846112,-3.66282287161766,-28.5188768618651,0.0690695941448212,-0.0613597258925438,0.267928719520569
-20.5764016802749,-10.7993771846112,-3.66282287161766,-28.5188768618651,0.069128081202507,-0.0614230111241341,0.268413126468658
-20.5764016802749,-10.7993771846112,-3.66282287161766,-28.5188768618651,0.0691860169172287,-0.0614858381450176,0.268896549940109
-20.5764016802749,-10.7993771846112,-3.66282287161766,-28.5188768618651,0.0692434087395668,-0.0615482069551945,0.269379019737244
-20.5764016802749,-10.7993771846112,-3.66282287161766,-28.5188768618651,0.0693002566695213,-0.0616101175546646,0.269860506057739
-20.5764016802749,-10.7993771846112,-3.66282287161766,-28.5188768618651,0.0693565607070923,-0.061671569943428,0.270341038703918
-20.5764016802749,-10.7993771846112,-3.66282287161766,-28.5188768618651,0.0694123208522797,-0.0617325678467751,0.270820617675781
-20.5764016802749,-10.7993771846112,-3.66282287161766,-28.5188768618651,0.0694675371050835,-0.0617931075394154,0.271299213171005
-20.5764016802749,-10.7993771846112,-3.66282287161766,-28.5188768618651,0.0695222094655037,-0.0618531927466393,0.271776854991913
-20.5764016802749,-10.7993771846112,-3.66282287161766,-28.5188768618651,0.0695763379335403,-0.0619128234684467,0.272253543138504
-20.5764016802749,-10.7993771846112,-3.66282287161766,-28.5188768618651,0.069629929959774,-0.0619719997048378,0.272729277610779
-20.5764016802749,-10.7993771846112,-3.66282287161766,-28.5188768618651,0.0696829780936241,-0.0620307214558125,0.273204028606415
-20.5764016802749,-10.7993771846112,-3.66282287161766,-28.5188768618651,0.0697354897856712,-0.0620889887213707,0.273677825927734
-20.5764016802749,-10.7993771846112,-3.66282287161766,-28.5188768618651,0.0697874575853348,-0.0621468015015125,0.274150669574738
-20.5764016802749,-10.7993771846112,-3.66282287161766,-28.5188768618651,0.0698388889431953,-0.0622041635215282,0.274622559547424
-20.5764016802749,-10.7993771846112,-3.66282287161766,-28.5188768618651,0.0698897838592529,-0.0622610710561275,0.275093495845795
-20.5764016802749,-10.7993771846112,-3.66282287161766,-28.5188768618651,0.0699401423335075,-0.0623175278306007,0.275563478469849
-20.5764016802749,-10.7993771846112,-3.66282287161766,-28.5188768618651,0.0699899643659592,-0.0623735338449478,0.276032537221909
-20.5764016802749,-10.7993771846112,-3.66282287161766,-28.5188768618651,0.0700392499566078,-0.0624290853738785,0.276500642299652
-20.5764016802749,-10.7993771846112,-3.66282287161766,-28.5188768618651,0.0700880065560341,-0.062484186142683,0.276967793703079
-20.5764016802749,-10.7993771846112,-3.66282287161766,-28.5188768618651,0.0701362267136574,-0.0625388398766518,0.27743399143219
-20.5764016802749,-10.7993771846112,-3.66282287161766,-28.5188768618651,0.0701839178800583,-0.0625930428504944,0.277899265289307
-20.5764016802749,-10.7993771846112,-3.66282287161766,-28.5188768618651,0.0702310726046562,-0.0626467913389206,0.278363585472107
-20.5764016802749,-10.7993771846112,-3.66282287161766,-28.5188768618651,0.0702776983380318,-0.062700092792511,0.278826951980591
-20.5764016802749,-10.7993771846112,-3.66282287161766,-28.5188768618651,0.0703237950801849,-0.0627529472112656,0.279289394617081
-20.5764016802749,-10.7993771846112,-3.66282287161766,-28.5188768618651,0.0703693553805351,-0.0628053545951843,0.279750883579254
-20.5764016802749,-10.7993771846112,-3.66282287161766,-28.5188768618651,0.0704143866896629,-0.0628573149442673,0.280211448669434
-20.5764016802749,-10.7993771846112,-3.66282287161766,-28.5188768618651,0.070458896458149,-0.0629088208079338,0.280671089887619
-20.5764016802749,-10.7993771846112,-3.66282287161766,-28.5188768618651,0.0705028772354126,-0.0629598796367645,0.281129777431488
-20.5764016802749,-10.7993771846112,-3.66282287161766,-28.5188768618651,0.0705463290214539,-0.06301049888134,0.281587541103363
-20.5764016802749,-10.7993771846112,-3.66282287161766,-28.5188768618651,0.0705892518162727,-0.0630606710910797,0.282044380903244
-20.5764016802749,-10.7993771846112,-3.66282287161766,-28.5188768618651,0.0706316530704498,-0.0631103962659836,0.282500267028809
-20.5764016802749,-10.7993771846112,-3.66282287161766,-28.5188768618651,0.0706735253334045,-0.0631596744060516,0.282955229282379
-20.5764016802749,-10.7993771846112,-3.66282287161766,-28.5188768618651,0.0707148760557175,-0.0632085055112839,0.283409267663956
-20.5764016802749,-10.7993771846112,-3.66282287161766,-28.5188768618651,0.0707557052373886,-0.0632568970322609,0.283862382173538
-20.5764016802749,-10.7993771846112,-3.66282287161766,-28.5188768618651,0.070796012878418,-0.0633048415184021,0.284314572811127
-20.5764016802749,-10.7993771846112,-3.66282287161766,-28.5188768618651,0.0708357989788055,-0.0633523389697075,0.284765839576721
-20.5764016802749,-10.7993771846112,-3.66282287161766,-28.5188768618651,0.0708750635385513,-0.0633993968367577,0.285216182470322
-20.5764016802749,-10.7993771846112,-3.66282287161766,-28.5188768618651,0.0709138065576553,-0.063446007668972,0.285665601491928
-20.5764016802749,-10.7993771846112,-3.66282287161766,-28.5188768618651,0.0709520280361176,-0.0634921789169312,0.286114096641541
-20.5764016802749,-10.7993771846112,-3.66282287161766,-28.5188768618651,0.070989727973938,-0.0635379105806351,0.286561697721481
-20.5764016802749,-10.7993771846112,-3.66282287161766,-28.5188768618651,0.0710269138216972,-0.0635831952095032,0.287008374929428
-20.5764016802749,-10.7993771846112,-3.66282287161766,-28.5188768618651,0.0710635781288147,-0.0636280402541161,0.287454128265381
-20.5764016802749,-10.7993771846112,-3.66282287161766,-28.5188768618651,0.071099728345871,-0.0636724457144737,0.28789895772934
-20.5764016802749,-10.7993771846112,-3.66282287161766,-28.5188768618651,0.0711353644728661,-0.0637164115905762,0.288342893123627
-20.5764016802749,-10.7993771846112,-3.66282287161766,-28.5188768618651,0.0711704865098,-0.0637599378824234,0.28878590464592
-20.5764016802749,-10.7993771846112,-3.66282287161766,-28.5188768618651,0.0712050944566727,-0.0638030245900154,0.289228022098541
-20.5764016802749,-10.7993771846112,-3.66282287161766,-28.5188768618651,0.0712391883134842,-0.0638456717133522,0.289669215679169
-20.5764016802749,-10.7993771846112,-3.66282287161766,-28.5188768618651,0.0712727680802345,-0.0638878792524338,0.290109515190125
-20.5764016802749,-10.7993771846112,-3.66282287161766,-28.5188768618651,0.0713058337569237,-0.0639296472072601,0.290548890829086
-20.5764016802749,-10.7993771846112,-3.66282287161766,-28.5188768618651,0.0713383853435516,-0.0639709755778313,0.290987372398376
-20.5764016802749,-10.7993771846112,-3.66282287161766,-28.5188768618651,0.071370430290699,-0.0640118718147278,0.291424959897995
-20.5764016802749,-10.7993771846112,-3.66282287161766,-28.5188768618651,0.0714019611477852,-0.0640523284673691,0.29186162352562
-20.5764016802749,-10.7993771846112,-3.66282287161766,-28.5188768618651,0.0714329853653908,-0.0640923455357552,0.292297393083572
-20.5764016802749,-10.7993771846112,-3.66282287161766,-28.5188768618651,0.0714634954929352,-0.0641319304704666,0.292732268571854
-20.5764016802749,-10.7993771846112,-3.66282287161766,-28.5188768618651,0.071493498980999,-0.0641710758209229,0.293166249990463
-20.5764016802749,-10.7993771846112,-3.66282287161766,-28.5188768618651,0.0715229958295822,-0.0642097890377045,0.293599337339401
-20.5764016802749,-10.7993771846112,-3.66282287161766,-28.5188768618651,0.0715519860386848,-0.0642480626702309,0.294031530618668
-20.5764016802749,-10.7993771846112,-3.66282287161766,-28.5188768618651,0.0715804696083069,-0.0642859041690826,0.294462829828262
-20.5764016802749,-10.7993771846112,-3.66282287161766,-28.5188768618651,0.0716084465384483,-0.0643233135342598,0.294893234968185
-20.5764016802749,-10.7993771846112,-3.66282287161766,-28.5188768618651,0.0716359242796898,-0.0643602833151817,0.295322746038437
-20.5764016802749,-10.7993771846112,-3.66282287161766,-28.5188768618651,0.0716628953814507,-0.064396820962429,0.295751363039017
-20.5764016802749,-10.7993771846112,-3.66282287161766,-28.5188768618651,0.0716893598437309,-0.0644329264760017,0.296179085969925
-20.5764016802749,-10.7993771846112,-3.66282287161766,-28.5188768618651,0.0717153251171112,-0.0644685998558998,0.296605914831162
-20.5764016802749,-10.7993771846112,-3.66282287161766,-28.5188768618651,0.0717407912015915,-0.0645038411021233,0.297031879425049
-20.5764016802749,-10.7993771846112,-3.66282287161766,-28.5188768618651,0.0717657506465912,-0.0645386502146721,0.297456949949265
-20.5764016802749,-10.7993771846112,-3.66282287161766,-28.5188768618651,0.0717902109026909,-0.0645730271935463,0.297881126403809
-20.5764016802749,-10.7993771846112,-3.66282287161766,-28.5188768618651,0.0718141719698906,-0.0646069720387459,0.298304438591003
-20.5764016802749,-10.7993771846112,-3.66282287161766,-28.5188768618651,0.0718376338481903,-0.0646404847502708,0.298726856708527
-20.5764016802749,-10.7993771846112,-3.66282287161766,-28.5188768618651,0.07186059653759,-0.0646735727787018,0.299148410558701
-20.5764016802749,-10.7993771846112,-3.66282287161766,-28.5188768618651,0.0718830674886703,-0.0647062286734581,0.299569070339203
-20.5764016802749,-10.7993771846112,-3.66282287161766,-28.5188768618651,0.0719050392508507,-0.0647384524345398,0.299988865852356
-20.5764016802749,-10.7993771846112,-3.66282287161766,-28.5188768618651,0.071926511824131,-0.0647702515125275,0.30040779709816
-20.5764016802749,-10.7993771846112,-3.66282287161766,-28.5188768618651,0.0719474926590919,-0.0648016184568405,0.300825834274292
-20.5764016802749,-10.7993771846112,-3.66282287161766,-28.5188768618651,0.0719679743051529,-0.0648325607180595,0.301243007183075
-20.5764016802749,-10.7993771846112,-3.66282287161766,-28.5188768618651,0.0719879642128944,-0.0648630708456039,0.301659315824509
-20.5764016802749,-10.7993771846112,-3.66282287161766,-28.5188768618651,0.0720074623823166,-0.0648931562900543,0.302074730396271
-20.5764016802749,-10.7993771846112,-3.66282287161766,-28.5188768618651,0.0720264688134193,-0.0649228170514107,0.302489280700684
-20.5764016802749,-10.7993771846112,-3.66282287161766,-28.5188768618651,0.0720449835062027,-0.064952053129673,0.302902966737747
-20.5764016802749,-10.7993771846112,-3.66282287161766,-28.5188768618651,0.0720630064606667,-0.0649808570742607,0.303315788507462
-20.5764016802749,-10.7993771846112,-3.66282287161766,-28.5188768618651,0.0720805376768112,-0.0650092363357544,0.303727746009827
-20.5764016802749,-10.7993771846112,-3.66282287161766,-28.5188768618651,0.0720975771546364,-0.0650371909141541,0.304138839244843
-20.5764016802749,-10.7993771846112,-3.66282287161766,-28.5188768618651,0.0721141323447227,-0.0650647208094597,0.304549068212509
-20.5764016802749,-10.7993771846112,-3.66282287161766,-28.5188768618651,0.0721301957964897,-0.0650918260216713,0.304958432912827
-20.5764016802749,-10.7993771846112,-3.66282287161766,-28.5188768618651,0.0721457749605179,-0.0651185065507889,0.305366963148117
-20.5764016802749,-10.7993771846112,-3.66282287161766,-28.5188768618651,0.0721608623862267,-0.0651447623968124,0.305774629116058
-20.5764016802749,-10.7993771846112,-3.66282287161766,-28.5188768618651,0.0721754655241966,-0.0651706010103226,0.30618143081665
-20.5764016802749,-10.7993771846112,-3.66282287161766,-28.5188768618651,0.0721895843744278,-0.0651960149407387,0.306587368249893
-20.5764016802749,-10.7993771846112,-3.66282287161766,-28.5188768618651,0.0722032189369202,-0.0652210041880608,0.306992471218109
-20.5764016802749,-10.7993771846112,-3.66282287161766,-28.5188768618651,0.0722163692116737,-0.0652455687522888,0.307396709918976
-20.5764016802749,-10.7993771846112,-3.66282287161766,-28.5188768618651,0.0722290351986885,-0.0652697160840034,0.307800084352493
-20.5764016802749,-10.7993771846112,-3.66282287161766,-28.5188768618651,0.0722412168979645,-0.0652934387326241,0.308202624320984
-20.5764016802749,-10.7993771846112,-3.66282287161766,-28.5188768618651,0.0722529143095016,-0.0653167441487312,0.308604300022125
-20.5764016802749,-10.7993771846112,-3.66282287161766,-28.5188768618651,0.0722641348838806,-0.0653396248817444,0.30900514125824
-20.5764016802749,-10.7993771846112,-3.66282287161766,-28.5188768618651,0.0722748711705208,-0.0653620883822441,0.309405118227005
-20.5764016802749,-10.7993771846112,-3.66282287161766,-28.5188768618651,0.0722851306200027,-0.0653841346502304,0.309804260730743
-20.5764016802749,-10.7993771846112,-3.66282287161766,-28.5188768618651,0.0722949132323265,-0.0654057562351227,0.310202568769455
-20.5764016802749,-10.7993771846112,-3.66282287161766,-28.5188768618651,0.0723042115569115,-0.0654269605875015,0.31060004234314
-20.5764016802749,-10.7993771846112,-3.66282287161766,-28.5188768618651,0.0723130330443382,-0.0654477477073669,0.310996651649475
-20.5764016802749,-10.7993771846112,-3.66282287161766,-28.5188768618651,0.0723213776946068,-0.0654681175947189,0.311392426490784
-20.5764016802749,-10.7993771846112,-3.66282287161766,-28.5188768618651,0.0723292455077171,-0.0654880702495575,0.311787366867065
-20.5764016802749,-10.7993771846112,-3.66282287161766,-28.5188768618651,0.0723366364836693,-0.0655076056718826,0.31218147277832
-20.5764016802749,-10.7993771846112,-3.66282287161766,-28.5188768618651,0.0723435580730438,-0.0655267238616943,0.312574744224548
-20.5764016802749,-10.7993771846112,-3.66282287161766,-28.5188768618651,0.0723500028252602,-0.0655454248189926,0.31296718120575
-20.5764016802749,-10.7993771846112,-3.66282287161766,-28.5188768618651,0.0723559707403183,-0.0655637085437775,0.313358783721924
-20.5764016802749,-10.7993771846112,-3.66282287161766,-28.5188768618651,0.0723614692687988,-0.0655815750360489,0.313749551773071
-20.5764016802749,-10.7993771846112,-3.66282287161766,-28.5188768618651,0.0723664909601212,-0.0655990317463875,0.314139485359192
-20.5764016802749,-10.7993771846112,-3.66282287161766,-28.5188768618651,0.0723710432648659,-0.0656160712242126,0.314528584480286
-20.5764016802749,-10.7993771846112,-3.66282287161766,-28.5188768618651,0.072375126183033,-0.0656326934695244,0.314916849136353
-20.5764016802749,-10.7993771846112,-3.66282287161766,-28.5188768618651,0.0723787397146225,-0.0656489059329033,0.315304309129715
-20.5764016802749,-10.7993771846112,-3.66282287161766,-28.5188768618651,0.0723818838596344,-0.0656647011637688,0.315690934658051
-20.5764016802749,-10.7993771846112,-3.66282287161766,-28.5188768618651,0.0723845586180687,-0.0656800866127014,0.316076725721359
-20.5764016802749,-10.7993771846112,-3.66282287161766,-28.5188768618651,0.0723867639899254,-0.0656950548291206,0.316461712121964
-20.5764016802749,-10.7993771846112,-3.66282287161766,-28.5188768618651,0.0723884999752045,-0.065709613263607,0.316845864057541
-20.5764016802749,-10.7993771846112,-3.66282287161766,-28.5188768618651,0.0723897740244865,-0.0657237619161606,0.317229181528091
-20.5764016802749,-10.7993771846112,-3.66282287161766,-28.5188768618651,0.072390578687191,-0.0657374933362007,0.317611694335938
-20.5764016802749,-10.7993771846112,-3.66282287161766,-28.5188768618651,0.0723909214138985,-0.065750814974308,0.317993402481079
-20.5764016802749,-10.7993771846112,-3.66282287161766,-28.5188768618651,0.0723907947540283,-0.0657637268304825,0.318374276161194
-20.5764016802749,-10.7993771846112,-3.66282287161766,-28.5188768618651,0.0723902061581612,-0.0657762289047241,0.318754345178604
-20.5764016802749,-10.7993771846112,-3.66282287161766,-28.5188768618651,0.072389155626297,-0.0657883211970329,0.319133579730988
-20.5764016802749,-10.7993771846112,-3.66282287161766,-28.5188768618651,0.0723876431584358,-0.0658000037074089,0.319512009620667
-20.5764016802749,-10.7993771846112,-3.66282287161766,-28.5188768618651,0.0723856687545776,-0.0658112764358521,0.319889634847641
-20.5764016802749,-10.7993771846112,-3.66282287161766,-28.5188768618651,0.0723832324147224,-0.0658221393823624,0.320266455411911
-20.5764016802749,-10.7993771846112,-3.66282287161766,-28.5188768618651,0.0723803341388702,-0.0658325925469399,0.320642471313477
-20.5764016802749,-10.7993771846112,-3.66282287161766,-28.5188768618651,0.072376973927021,-0.0658426359295845,0.321017652750015
-20.5764016802749,-10.7993771846112,-3.66282287161766,-28.5188768618651,0.0723731517791748,-0.0658522769808769,0.321392029523849
-20.5764016802749,-10.7993771846112,-3.66282287161766,-28.5188768618651,0.0723688751459122,-0.0658615082502365,0.321765601634979
-20.5764016802749,-10.7993771846112,-3.66282287161766,-28.5188768618651,0.0723641365766525,-0.0658703297376633,0.322138369083405
-20.5764016802749,-10.7993771846112,-3.66282287161766,-28.5188768618651,0.0723589435219765,-0.0658787488937378,0.322510331869125
-20.5764016802749,-10.7993771846112,-3.66282287161766,-28.5188768618651,0.072353295981884,-0.0658867582678795,0.322881489992142
-20.5764016802749,-10.7993771846112,-3.66282287161766,-28.5188768618651,0.0723471939563751,-0.0658943653106689,0.323251873254776
-20.5764016802749,-10.7993771846112,-3.66282287161766,-28.5188768618651,0.0723406374454498,-0.0659015625715256,0.323621451854706
-20.5764016802749,-10.7993771846112,-3.66282287161766,-28.5188768618651,0.0723336264491081,-0.06590835750103,0.323990225791931
-20.5764016802749,-10.7993771846112,-3.66282287161766,-28.5188768618651,0.07232616096735,-0.0659147500991821,0.324358195066452
-20.5764016802749,-10.7993771846112,-3.66282287161766,-28.5188768618651,0.0723182410001755,-0.0659207403659821,0.324725389480591
-20.5764016802749,-10.7993771846112,-3.66282287161766,-28.5188768618651,0.0723098665475845,-0.0659263208508492,0.325091779232025
-20.5764016802749,-10.7993771846112,-3.66282287161766,-28.5188768618651,0.0723010376095772,-0.065931499004364,0.325457364320755
-20.5764016802749,-10.7993771846112,-3.66282287161766,-28.5188768618651,0.072291761636734,-0.0659362748265266,0.325822174549103
-20.5764016802749,-10.7993771846112,-3.66282287161766,-28.5188768618651,0.0722820311784744,-0.065940648317337,0.326186180114746
-20.5764016802749,-10.7993771846112,-3.66282287161766,-28.5188768618651,0.072271853685379,-0.0659446194767952,0.326549410820007
-20.5764016802749,-10.7993771846112,-3.66282287161766,-28.5188768618651,0.0722612291574478,-0.0659481883049011,0.326911836862564
-20.5764016802749,-10.7993771846112,-3.66282287161766,-28.5188768618651,0.0722501575946808,-0.0659513548016548,0.327273488044739
-20.5764016802749,-10.7993771846112,-3.66282287161766,-28.5188768618651,0.0722386389970779,-0.0659541189670563,0.327634364366531
-20.5764016802749,-10.7993771846112,-3.66282287161766,-28.5188768618651,0.0722266733646393,-0.0659564882516861,0.32799443602562
-20.5764016802749,-10.7993771846112,-3.66282287161766,-28.5188768618651,0.0722142606973648,-0.0659584552049637,0.328353732824326
-20.5764016802749,-10.7993771846112,-3.66282287161766,-28.5188768618651,0.0722014009952545,-0.065960019826889,0.32871225476265
-20.5764016802749,-10.7993771846112,-3.66282287161766,-28.5188768618651,0.0721880942583084,-0.0659611895680428,0.329070001840591
-20.5764016802749,-10.7993771846112,-3.66282287161766,-28.5188768618651,0.0721743404865265,-0.0659619569778442,0.329426974058151
-20.5764016802749,-10.7993771846112,-3.66282287161766,-28.5188768618651,0.0721601471304893,-0.0659623295068741,0.329783141613007
-20.5764016802749,-10.7993771846112,-3.66282287161766,-28.5188768618651,0.0721455067396164,-0.0659622997045517,0.33013853430748
-20.5764016802749,-10.7993771846112,-3.66282287161766,-28.5188768618651,0.0721304267644882,-0.0659618750214577,0.330493152141571
-20.5764016802749,-10.7993771846112,-3.66282287161766,-28.5188768618651,0.0721149072051048,-0.0659610480070114,0.33084699511528
-20.5764016802749,-10.7993771846112,-3.66282287161766,-28.5188768618651,0.0720989480614662,-0.0659598261117935,0.331200063228607
-20.5764016802749,-10.7993771846112,-3.66282287161766,-28.5188768618651,0.0720825493335724,-0.065958209335804,0.331552386283875
-20.5764016802749,-10.7993771846112,-3.66282287161766,-28.5188768618651,0.0720657035708427,-0.0659561976790428,0.33190393447876
-20.5764016802749,-10.7993771846112,-3.66282287161766,-28.5188768618651,0.0720484256744385,-0.0659537836909294,0.332254707813263
-20.5764016802749,-10.7993771846112,-3.66282287161766,-28.5188768618651,0.072030708193779,-0.0659509748220444,0.332604706287384
-20.5764016802749,-10.7993771846112,-3.66282287161766,-28.5188768618651,0.0720125511288643,-0.0659477710723877,0.332953929901123
-20.5764016802749,-10.7993771846112,-3.66282287161766,-28.5188768618651,0.0719939544796944,-0.0659441724419594,0.333302408456802
-20.5764016802749,-10.7993771846112,-3.66282287161766,-28.5188768618651,0.0719749256968498,-0.0659401789307594,0.3336501121521
-20.5764016802749,-10.7993771846112,-3.66282287161766,-28.5188768618651,0.0719554573297501,-0.0659357979893684,0.333997070789337
-20.5764016802749,-10.7993771846112,-3.66282287161766,-28.5188768618651,0.0719355568289757,-0.0659310221672058,0.334343254566193
-20.5764016802749,-10.7993771846112,-3.66282287161766,-28.5188768618651,0.0719152241945267,-0.0659258514642715,0.334688663482666
-20.5764016802749,-10.7993771846112,-3.66282287161766,-28.5188768618651,0.0718944519758224,-0.0659202858805656,0.33503332734108
-20.5764016802749,-10.7993771846112,-3.66282287161766,-28.5188768618651,0.0718732476234436,-0.0659143254160881,0.335377246141434
-20.5764016802749,-10.7993771846112,-3.66282287161766,-28.5188768618651,0.0718516111373901,-0.0659079775214195,0.335720390081406
-20.5764016802749,-10.7993771846112,-3.66282287161766,-28.5188768618651,0.071829542517662,-0.0659012347459793,0.336062788963318
-20.5764016802749,-10.7993771846112,-3.66282287161766,-28.5188768618651,0.0718070492148399,-0.0658941045403481,0.33640444278717
-20.5764016802749,-10.7993771846112,-3.66282287161766,-28.5188768618651,0.0717841237783432,-0.0658865794539452,0.336745321750641
-20.5764016802749,-10.7993771846112,-3.66282287161766,-28.5188768618651,0.0717607662081718,-0.0658786669373512,0.337085455656052
-20.5764016802749,-10.7993771846112,-3.66282287161766,-28.5188768618651,0.0717369839549065,-0.0658703595399857,0.337424844503403
-20.5764016802749,-10.7993771846112,-3.66282287161766,-28.5188768618651,0.0717127695679665,-0.065861664712429,0.337763488292694
-20.5764016802749,-10.7993771846112,-3.66282287161766,-28.5188768618651,0.0716881304979324,-0.0658525824546814,0.338101387023926
-20.5764016802749,-10.7993771846112,-3.66282287161766,-28.5188768618651,0.0716630592942238,-0.0658431127667427,0.338438540697098
-20.5764016802749,-10.7993771846112,-3.66282287161766,-28.5188768618651,0.0716375634074211,-0.0658332481980324,0.33877494931221
-20.5764016802749,-10.7993771846112,-3.66282287161766,-28.5188768618651,0.0716116428375244,-0.065822996199131,0.339110612869263
-20.5764016802749,-10.7993771846112,-3.66282287161766,-28.5188768618651,0.0715852975845337,-0.0658123567700386,0.339445531368256
-20.5764016802749,-10.7993771846112,-3.66282287161766,-28.5188768618651,0.0715585276484489,-0.0658013299107552,0.339779704809189
-20.5764016802749,-10.7993771846112,-3.66282287161766,-28.5188768618651,0.0715313330292702,-0.0657899156212807,0.340113133192062
-20.5764016802749,-10.7993771846112,-3.66282287161766,-28.5188768618651,0.0715037137269974,-0.0657781139016151,0.340445816516876
-20.5764016802749,-10.7993771846112,-3.66282287161766,-28.5188768618651,0.0714756771922112,-0.0657659322023392,0.34077775478363
-20.5764016802749,-10.7993771846112,-3.66282287161766,-28.5188768618651,0.0714472159743309,-0.0657533630728722,0.341108977794647
-20.5764016802749,-10.7993771846112,-3.66282287161766,-28.5188768618651,0.0714183300733566,-0.0657404065132141,0.341439455747604
-20.5764016802749,-10.7993771846112,-3.66282287161766,-28.5188768618651,0.0713890269398689,-0.065727062523365,0.341769188642502
-20.5764016802749,-10.7993771846112,-3.66282287161766,-28.5188768618651,0.0713593065738678,-0.0657133385539055,0.342098206281662
-20.5764016802749,-10.7993771846112,-3.66282287161766,-28.5188768618651,0.0713291615247726,-0.0656992271542549,0.342426478862762
-20.5764016802749,-10.7993771846112,-3.66282287161766,-28.5188768618651,0.0712985992431641,-0.0656847283244133,0.342754006385803
-20.5764016802749,-10.7993771846112,-3.66282287161766,-28.5188768618651,0.0712676197290421,-0.0656698495149612,0.343080818653107
-20.5764016802749,-10.7993771846112,-3.66282287161766,-28.5188768618651,0.0712362229824066,-0.0656545907258987,0.343406915664673
-20.5764016802749,-10.7993771846112,-3.66282287161766,-28.5188768618651,0.0712044090032578,-0.0656389445066452,0.343732267618179
-20.5764016802749,-10.7993771846112,-3.66282287161766,-28.5188768618651,0.0711721777915955,-0.0656229183077812,0.344056904315948
-20.5764016802749,-10.7993771846112,-3.66282287161766,-28.5188768618651,0.0711395367980003,-0.0656065046787262,0.344380795955658
-20.5764016802749,-10.7993771846112,-3.66282287161766,-28.5188768618651,0.0711064785718918,-0.0655897110700607,0.34470397233963
-20.5764016802749,-10.7993771846112,-3.66282287161766,-28.5188768618651,0.0710730105638504,-0.0655725374817848,0.345026433467865
-20.5764016802749,-10.7993771846112,-3.66282287161766,-28.5188768618651,0.0710391253232956,-0.0655549839138985,0.345348179340363
-20.5764016802749,-10.7993771846112,-3.66282287161766,-28.5188768618651,0.071004830300808,-0.0655370503664017,0.345669209957123
-20.5764016802749,-10.7993771846112,-3.66282287161766,-28.5188768618651,0.0709701180458069,-0.0655187368392944,0.345989495515823
-20.5764016802749,-10.7993771846112,-3.66282287161766,-28.5188768618651,0.070934996008873,-0.0655000433325768,0.346309065818787
-20.5764016802749,-10.7993771846112,-3.66282287161766,-28.5188768618651,0.0708994641900063,-0.0654809698462486,0.346627920866013
-20.5764016802749,-10.7993771846112,-3.66282287161766,-28.5188768618651,0.0708635225892067,-0.0654615163803101,0.346946060657501
-20.5764016802749,-10.7993771846112,-3.66282287161766,-28.5188768618651,0.0708271712064743,-0.065441682934761,0.347263485193253
-20.5764016802749,-10.7993771846112,-3.66282287161766,-28.5188768618651,0.0707904100418091,-0.0654214695096016,0.347580194473267
-20.5764016802749,-10.7993771846112,-3.66282287161766,-28.5188768618651,0.0707532465457916,-0.0654008835554123,0.347896218299866
-20.5764016802749,-10.7993771846112,-3.66282287161766,-28.5188768618651,0.0707156732678413,-0.0653799176216125,0.348211526870728
-20.5764016802749,-10.7993771846112,-3.66282287161766,-28.5188768618651,0.0706776902079582,-0.0653585717082024,0.348526120185852
-20.5764016802749,-10.7993771846112,-3.66282287161766,-28.5188768618651,0.0706393048167229,-0.0653368532657623,0.348839998245239
-20.5764016802749,-10.7993771846112,-3.66282287161766,-28.5188768618651,0.0706005096435547,-0.0653147548437119,0.349153161048889
-20.5764016802749,-10.7993771846112,-3.66282287161766,-28.5188768618651,0.0705613121390343,-0.0652922838926315,0.349465638399124
-20.5764016802749,-10.7993771846112,-3.66282287161766,-28.5188768618651,0.0705217123031616,-0.0652694329619408,0.349777400493622
-20.5764016802749,-10.7993771846112,-3.66282287161766,-28.5188768618651,0.0704817101359367,-0.0652462095022202,0.350088477134705
-20.5764016802749,-10.7993771846112,-3.66282287161766,-28.5188768618651,0.070441298186779,-0.0652226060628891,0.35039883852005
-20.5764016802749,-10.7993771846112,-3.66282287161766,-28.5188768618651,0.0704004913568497,-0.0651986300945282,0.350708484649658
-20.5764016802749,-10.7993771846112,-3.66282287161766,-28.5188768618651,0.0703592821955681,-0.0651742815971375,0.351017445325851
-20.5764016802749,-10.7993771846112,-3.66282287161766,-28.5188768618651,0.0703176707029343,-0.0651495605707169,0.35132572054863
-20.5764016802749,-10.7993771846112,-3.66282287161766,-28.5188768618651,0.0702756568789482,-0.0651244670152664,0.351633280515671
-20.5764016802749,-10.7993771846112,-3.66282287161766,-28.5188768618651,0.0702332407236099,-0.0650990009307861,0.351940155029297
-20.5764016802749,-10.7993771846112,-3.66282287161766,-28.5188768618651,0.0701904296875,-0.0650731548666954,0.352246344089508
-20.5764016802749,-10.7993771846112,-3.66282287161766,-28.5188768618651,0.0701472163200378,-0.0650469362735748,0.352551817893982
-20.5764016802749,-10.7993771846112,-3.66282287161766,-28.5188768618651,0.070103608071804,-0.065020352602005,0.352856606245041
-20.5764016802749,-10.7993771846112,-3.66282287161766,-28.5188768618651,0.0700596049427986,-0.0649933964014053,0.353160709142685
-20.5764016802749,-10.7993771846112,-3.66282287161766,-28.5188768618651,0.0700151994824409,-0.0649660676717758,0.353464126586914
-20.5764016802749,-10.7993771846112,-3.66282287161766,-28.5188768618651,0.0699703991413116,-0.0649383664131165,0.353766858577728
-20.5764016802749,-10.7993771846112,-3.66282287161766,-28.5188768618651,0.0699252039194107,-0.0649102926254272,0.354068875312805
-20.5764016802749,-10.7993771846112,-3.66282287161766,-28.5188768618651,0.0698796138167381,-0.0648818537592888,0.354370206594467
-20.5764016802749,-10.7993771846112,-3.66282287161766,-28.5188768618651,0.0698336362838745,-0.0648530423641205,0.354670852422714
-20.5764016802749,-10.7993771846112,-3.66282287161766,-28.5188768618651,0.0697872638702393,-0.0648238584399223,0.354970812797546
-20.5764016802749,-10.7993771846112,-3.66282287161766,-28.5188768618651,0.0697404965758324,-0.0647943094372749,0.355270117521286
-20.5764016802749,-10.7993771846112,-3.66282287161766,-28.5188768618651,0.0696933344006538,-0.0647643879055977,0.355568736791611
-20.5764016802749,-10.7993771846112,-3.66282287161766,-28.5188768618651,0.0696457847952843,-0.0647341012954712,0.355866670608521
-20.5764016802749,-10.7993771846112,-3.66282287161766,-28.5188768618651,0.0695978403091431,-0.0647034496068954,0.356163918972015
-20.5764016802749,-10.7993771846112,-3.66282287161766,-28.5188768618651,0.0695495083928108,-0.0646724253892899,0.356460481882095
-20.5764016802749,-10.7993771846112,-3.66282287161766,-28.5188768618651,0.0695007890462875,-0.064641036093235,0.356756389141083
-20.5764016802749,-10.7993771846112,-3.66282287161766,-28.5188768618651,0.0694516822695732,-0.0646092817187309,0.357051610946655
-20.5764016802749,-10.7993771846112,-3.66282287161766,-28.5188768618651,0.0694021880626678,-0.064577154815197,0.357346147298813
-20.5764016802749,-10.7993771846112,-3.66282287161766,-28.5188768618651,0.0693522989749908,-0.0645446628332138,0.357640027999878
-20.5764016802749,-10.7993771846112,-3.66282287161766,-28.5188768618651,0.0693020299077034,-0.0645118057727814,0.357933223247528
-20.5764016802749,-10.7993771846112,-3.66282287161766,-28.5188768618651,0.0692513734102249,-0.0644785836338997,0.358225733041763
-20.5764016802749,-10.7993771846112,-3.66282287161766,-28.5188768618651,0.0692003294825554,-0.0644449964165688,0.358517587184906
-20.5764016802749,-10.7993771846112,-3.66282287161766,-28.5188768618651,0.0691488981246948,-0.0644110441207886,0.358808785676956
-20.5764016802749,-10.7993771846112,-3.66282287161766,-28.5188768618651,0.0690970867872238,-0.0643767267465591,0.359099298715591
-20.5764016802749,-10.7993771846112,-3.66282287161766,-28.5188768618651,0.0690448880195618,-0.0643420517444611,0.359389156103134
-20.5764016802749,-10.7993771846112,-3.66282287161766,-28.5188768618651,0.0689923092722893,-0.0643070116639137,0.359678328037262
-20.5764016802749,-10.7993771846112,-3.66282287161766,-28.5188768618651,0.0689393430948257,-0.0642716065049171,0.359966844320297
-20.5764016802749,-10.7993771846112,-3.66282287161766,-28.5188768618651,0.0688859969377518,-0.0642358362674713,0.36025470495224
-20.5764016802749,-10.7993771846112,-3.66282287161766,-28.5188768618651,0.0688322708010674,-0.0641997084021568,0.36054190993309
-20.5764016802749,-10.7993771846112,-3.66282287161766,-28.5188768618651,0.0687781646847725,-0.0641632154583931,0.360828459262848
-20.5764016802749,-10.7993771846112,-3.66282287161766,-28.5188768618651,0.0687236785888672,-0.0641263574361801,0.361114323139191
-20.5764016802749,-10.7993771846112,-3.66282287161766,-28.5188768618651,0.0686688125133514,-0.0640891417860985,0.361399531364441
-20.5764016802749,-10.7993771846112,-3.66282287161766,-28.5188768618651,0.0686135664582253,-0.0640515685081482,0.361684083938599
-20.5764016802749,-10.7993771846112,-3.66282287161766,-28.5188768618651,0.0685579404234886,-0.0640136301517487,0.361967980861664
-20.5764016802749,-10.7993771846112,-3.66282287161766,-28.5188768618651,0.0685019418597221,-0.0639753341674805,0.362251222133636
-20.5764016802749,-10.7993771846112,-3.66282287161766,-28.5188768618651,0.0684455633163452,-0.063936673104763,0.362533807754517
-20.5764016802749,-10.7993771846112,-3.66282287161766,-28.5188768618651,0.0683888122439384,-0.0638976544141769,0.362815737724304
-20.5764016802749,-10.7993771846112,-3.66282287161766,-28.5188768618651,0.0683316811919212,-0.0638582780957222,0.363097041845322
-20.5764016802749,-10.7993771846112,-3.66282287161766,-28.5188768618651,0.0682741776108742,-0.0638185441493988,0.363377690315247
-20.5764016802749,-10.7993771846112,-3.66282287161766,-28.5188768618651,0.0682163015007973,-0.0637784525752068,0.363657683134079
-20.5764016802749,-10.7993771846112,-3.66282287161766,-28.5188768618651,0.0681580528616905,-0.0637380033731461,0.363937020301819
-20.5764016802749,-10.7993771846112,-3.66282287161766,-28.5188768618651,0.0680994242429733,-0.0636971965432167,0.364215701818466
-20.5764016802749,-10.7993771846112,-3.66282287161766,-28.5188768618651,0.0680404230952263,-0.0636560320854187,0.364493757486343
-20.5764016802749,-10.7993771846112,-3.66282287161766,-28.5188768618651,0.06798105686903,-0.063614509999752,0.364771157503128
-20.5764016802749,-10.7993771846112,-3.66282287161766,-28.5188768618651,0.0679213181138039,-0.0635726302862167,0.365047931671143
-20.5764016802749,-10.7993771846112,-3.66282287161766,-28.5188768618651,0.0678612068295479,-0.0635303929448128,0.365324050188065
-20.5764016802749,-10.7993771846112,-3.66282287161766,-28.5188768618651,0.0678007230162621,-0.0634877979755402,0.365599542856216
-20.5764016802749,-10.7993771846112,-3.66282287161766,-28.5188768618651,0.067739874124527,-0.0634448528289795,0.365874379873276
-20.5764016802749,-10.7993771846112,-3.66282287161766,-28.5188768618651,0.0676786527037621,-0.0634015500545502,0.366148591041565
-20.5764016802749,-10.7993771846112,-3.66282287161766,-28.5188768618651,0.0676170662045479,-0.0633578896522522,0.366422146558762
-20.5764016802749,-10.7993771846112,-3.66282287161766,-28.5188768618651,0.0675551071763039,-0.0633138790726662,0.366695076227188
-20.5764016802749,-10.7993771846112,-3.66282287161766,-28.5188768618651,0.0674927830696106,-0.0632695108652115,0.366967380046844
-20.5764016802749,-10.7993771846112,-3.66282287161766,-28.5188768618651,0.0674300938844681,-0.0632247924804688,0.367239028215408
-20.5764016802749,-10.7993771846112,-3.66282287161766,-28.5188768618651,0.0673670396208763,-0.0631797164678574,0.367510050535202
-20.5764016802749,-10.7993771846112,-3.66282287161766,-28.5188768618651,0.0673036202788353,-0.0631342902779579,0.367780447006226
-20.5764016802749,-10.7993771846112,-3.66282287161766,-28.5188768618651,0.067239835858345,-0.0630885139107704,0.368050217628479
-20.5764016802749,-10.7993771846112,-3.66282287161766,-28.5188768618651,0.0671756863594055,-0.0630423799157143,0.36831933259964
-20.5764016802749,-10.7993771846112,-3.66282287161766,-28.5188768618651,0.0671111792325974,-0.0629958957433701,0.368587821722031
-20.5764016802749,-10.7993771846112,-3.66282287161766,-28.5188768618651,0.0670463070273399,-0.0629490613937378,0.368855684995651
-20.5764016802749,-10.7993771846112,-3.66282287161766,-28.5188768618651,0.0669810697436333,-0.0629018768668175,0.369122922420502
-20.5764016802749,-10.7993771846112,-3.66282287161766,-28.5188768618651,0.066915474832058,-0.0628543421626091,0.369389533996582
-20.5764016802749,-10.7993771846112,-3.66282287161766,-28.5188768618651,0.0668495148420334,-0.0628064572811127,0.369655519723892
-20.5764016802749,-10.7993771846112,-3.66282287161766,-28.5188768618651,0.0667831972241402,-0.0627582222223282,0.369920909404755
-20.5764016802749,-10.7993771846112,-3.66282287161766,-28.5188768618651,0.0667165219783783,-0.0627096369862556,0.370185673236847
-20.5764016802749,-10.7993771846112,-3.66282287161766,-28.5188768618651,0.0666494891047478,-0.0626607015728951,0.370449811220169
-20.5764016802749,-10.7993771846112,-3.66282287161766,-28.5188768618651,0.0665820986032486,-0.0626114159822464,0.370713323354721
-20.5764016802749,-10.7993771846112,-3.66282287161766,-28.5188768618651,0.0665143504738808,-0.0625617802143097,0.370976209640503
-20.5764016802749,-10.7993771846112,-3.66282287161766,-28.5188768618651,0.0664462447166443,-0.0625117942690849,0.371238499879837
-20.5764016802749,-10.7993771846112,-3.66282287161766,-28.5188768618651,0.0663777813315392,-0.0624614618718624,0.371500164270401
-20.5764016802749,-10.7993771846112,-3.66282287161766,-28.5188768618651,0.0663089603185654,-0.0624107830226421,0.371761202812195
-20.5764016802749,-10.7993771846112,-3.66282287161766,-28.5188768618651,0.0662397816777229,-0.0623597577214241,0.372021645307541
-20.5764016802749,-10.7993771846112,-3.66282287161766,-28.5188768618651,0.0661702528595924,-0.0623083859682083,0.372281461954117
-20.5764016802749,-10.7993771846112,-3.66282287161766,-28.5188768618651,0.0661003664135933,-0.0622566677629948,0.372540682554245
-20.5764016802749,-10.7993771846112,-3.66282287161766,-28.5188768618651,0.0660301297903061,-0.0622046031057835,0.372799277305603
-20.5764016802749,-10.7993771846112,-3.66282287161766,-28.5188768618651,0.0659595355391502,-0.0621521919965744,0.373057276010513
-20.5764016802749,-10.7993771846112,-3.66282287161766,-28.5188768618651,0.0658885911107063,-0.0620994344353676,0.373314648866653
-20.5764016802749,-10.7993771846112,-3.66282287161766,-28.5188768618651,0.0658172965049744,-0.0620463341474533,0.373571425676346
-20.5764016802749,-10.7993771846112,-3.66282287161766,-28.5188768618651,0.0657456517219543,-0.0619928874075413,0.37382760643959
-20.5764016802749,-10.7993771846112,-3.66282287161766,-28.5188768618651,0.0656736567616463,-0.0619390979409218,0.374083161354065
-20.5764016802749,-10.7993771846112,-3.66282287161766,-28.5188768618651,0.0656013116240501,-0.0618849620223045,0.374338120222092
-20.5764016802749,-10.7993771846112,-3.66282287161766,-28.5188768618651,0.065528616309166,-0.0618304833769798,0.374592483043671
-20.5764016802749,-10.7993771846112,-3.66282287161766,-28.5188768618651,0.0654555708169937,-0.0617756620049477,0.374846249818802
-20.5764016802749,-10.7993771846112,-3.66282287161766,-28.5188768618651,0.065382182598114,-0.061720497906208,0.375099390745163
-20.5764016802749,-10.7993771846112,-3.66282287161766,-28.5188768618651,0.0653084442019463,-0.061664991080761,0.375351935625076
-20.5764016802749,-10.7993771846112,-3.66282287161766,-28.5188768618651,0.0652343556284904,-0.0616091415286064,0.375603884458542
-20.5764016802749,-10.7993771846112,-3.66282287161766,-28.5188768618651,0.0651599243283272,-0.0615529492497444,0.37585523724556
-20.5764016802749,-10.7993771846112,-3.66282287161766,-28.5188768618651,0.0650851503014565,-0.061496414244175,0.37610599398613
-20.5764016802749,-10.7993771846112,-3.66282287161766,-28.5188768618651,0.0650100260972977,-0.0614395402371883,0.376356154680252
-20.5764016802749,-10.7993771846112,-3.66282287161766,-28.5188768618651,0.0649345591664314,-0.0613823235034943,0.376605719327927
-20.5764016802749,-10.7993771846112,-3.66282287161766,-28.5188768618651,0.0648587495088577,-0.061324767768383,0.376854687929153
-20.5764016802749,-10.7993771846112,-3.66282287161766,-28.5188768618651,0.0647825971245766,-0.0612668693065643,0.377103090286255
-20.5764016802749,-10.7993771846112,-3.66282287161766,-28.5188768618651,0.064706102013588,-0.0612086318433285,0.377350896596909
-20.5764016802749,-10.7993771846112,-3.66282287161766,-28.5188768618651,0.0646292641758919,-0.0611500553786755,0.377598106861115
-20.5764016802749,-10.7993771846112,-3.66282287161766,-28.5188768618651,0.0645520836114883,-0.0610911399126053,0.377844721078873
-20.5764016802749,-10.7993771846112,-3.66282287161766,-28.5188768618651,0.0644745677709579,-0.061031885445118,0.378090769052505
-20.5764016802749,-10.7993771846112,-3.66282287161766,-28.5188768618651,0.0643967092037201,-0.0609722919762135,0.378336220979691
-20.5764016802749,-10.7993771846112,-3.66282287161766,-28.5188768618651,0.0643185079097748,-0.0609123632311821,0.378581076860428
-20.5764016802749,-10.7993771846112,-3.66282287161766,-28.5188768618651,0.0642399713397026,-0.0608520954847336,0.37882536649704
-20.5764016802749,-10.7993771846112,-3.66282287161766,-28.5188768618651,0.064161092042923,-0.0607914887368679,0.379069060087204
-20.5764016802749,-10.7993771846112,-3.66282287161766,-28.5188768618651,0.0640818774700165,-0.0607305467128754,0.379312187433243
-20.5764016802749,-10.7993771846112,-3.66282287161766,-28.5188768618651,0.0640023276209831,-0.0606692656874657,0.379554718732834
-20.5764016802749,-10.7993771846112,-3.66282287161766,-28.5188768618651,0.0639224424958229,-0.0606076493859291,0.3797966837883
-20.5764016802749,-10.7993771846112,-3.66282287161766,-28.5188768618651,0.0638422220945358,-0.0605456978082657,0.380038052797318
-20.5764016802749,-10.7993771846112,-3.66282287161766,-28.5188768618651,0.0637616664171219,-0.0604834109544754,0.38027885556221
-20.5764016802749,-10.7993771846112,-3.66282287161766,-28.5188768618651,0.0636807754635811,-0.0604207888245583,0.380519092082977
-20.5764016802749,-10.7993771846112,-3.66282287161766,-28.5188768618651,0.0635995492339134,-0.0603578314185143,0.380758732557297
-20.5764016802749,-10.7993771846112,-3.66282287161766,-28.5188768618651,0.0635179877281189,-0.0602945387363434,0.380997806787491
-20.5764016802749,-10.7993771846112,-3.66282287161766,-28.5188768618651,0.0634360909461975,-0.0602309107780457,0.38123631477356
-20.5764016802749,-10.7993771846112,-3.66282287161766,-28.5188768618651,0.0633538663387299,-0.0601669512689114,0.381474256515503
-20.5764016802749,-10.7993771846112,-3.66282287161766,-28.5188768618651,0.0632713064551353,-0.0601026564836502,0.381711632013321
-20.5764016802749,-10.7993771846112,-3.66282287161766,-28.5188768618651,0.0631884187459946,-0.0600380301475525,0.381948411464691
-20.5764016802749,-10.7993771846112,-3.66282287161766,-28.5188768618651,0.0631051957607269,-0.0599730722606182,0.382184624671936
-20.5764016802749,-10.7993771846112,-3.66282287161766,-28.5188768618651,0.063021644949913,-0.0599077790975571,0.382420271635056
-20.5764016802749,-10.7993771846112,-3.66282287161766,-28.5188768618651,0.0629377663135529,-0.0598421543836594,0.38265535235405
-20.5764016802749,-10.7993771846112,-3.66282287161766,-28.5188768618651,0.0628535598516464,-0.0597761981189251,0.382889866828918
-20.5764016802749,-10.7993771846112,-3.66282287161766,-28.5188768618651,0.0627690255641937,-0.0597099103033543,0.383123815059662
-20.5764016802749,-10.7993771846112,-3.66282287161766,-28.5188768618651,0.0626841634511948,-0.0596432909369469,0.383357226848602
-20.5764016802749,-10.7993771846112,-3.66282287161766,-28.5188768618651,0.0625989735126495,-0.0595763400197029,0.383590072393417
-20.5764016802749,-10.7993771846112,-3.66282287161766,-28.5188768618651,0.062513455748558,-0.0595090612769127,0.383822351694107
-20.5764016802749,-10.7993771846112,-3.66282287161766,-28.5188768618651,0.0624276138842106,-0.0594414509832859,0.384054064750671
-20.5764016802749,-10.7993771846112,-3.66282287161766,-28.5188768618651,0.0623414441943169,-0.0593735128641129,0.38428521156311
-20.5764016802749,-10.7993771846112,-3.66282287161766,-28.5188768618651,0.0622549504041672,-0.0593052431941032,0.384515821933746
-20.5764016802749,-10.7993771846112,-3.66282287161766,-28.5188768618651,0.0621681325137615,-0.0592366456985474,0.384745866060257
-20.5764016802749,-10.7993771846112,-3.66282287161766,-28.5188768618651,0.0620809905230999,-0.0591677203774452,0.384975343942642
-20.5764016802749,-10.7993771846112,-3.66282287161766,-28.5188768618651,0.0619935281574726,-0.0590984635055065,0.385204285383224
-20.5764016802749,-10.7993771846112,-3.66282287161766,-28.5188768618651,0.0619057416915894,-0.0590288788080215,0.385432660579681
-20.5764016802749,-10.7993771846112,-3.66282287161766,-28.5188768618651,0.0618176348507404,-0.0589589662849903,0.385660499334335
-20.5764016802749,-10.7993771846112,-3.66282287161766,-28.5188768618651,0.0617292076349258,-0.0588887296617031,0.385887771844864
-20.5764016802749,-10.7993771846112,-3.66282287161766,-28.5188768618651,0.0616404600441456,-0.0588181652128696,0.386114507913589
-20.5764016802749,-10.7993771846112,-3.66282287161766,-28.5188768618651,0.0615513920783997,-0.0587472729384899,0.38634067773819
-20.5764016802749,-10.7993771846112,-3.66282287161766,-28.5188768618651,0.0614620037376881,-0.0586760565638542,0.386566311120987
-20.5764016802749,-10.7993771846112,-3.66282287161766,-28.5188768618651,0.0613722950220108,-0.0586045123636723,0.386791408061981
-20.5764016802749,-10.7993771846112,-3.66282287161766,-28.5188768618651,0.0612822696566582,-0.0585326440632343,0.38701593875885
-20.5764016802749,-10.7993771846112,-3.66282287161766,-28.5188768618651,0.0611919276416302,-0.0584604479372501,0.387239933013916
-20.5764016802749,-10.7993771846112,-3.66282287161766,-28.5188768618651,0.0611012689769268,-0.05838792771101,0.387463390827179
-20.5764016802749,-10.7993771846112,-3.66282287161766,-28.5188768618651,0.0610102936625481,-0.0583150833845139,0.387686312198639
-20.5764016802749,-10.7993771846112,-3.66282287161766,-28.5188768618651,0.060919001698494,-0.0582419149577618,0.387908667325974
-20.5764016802749,-10.7993771846112,-3.66282287161766,-28.5188768618651,0.0608273930847645,-0.0581684224307537,0.388130486011505
-20.5764016802749,-10.7993771846112,-3.66282287161766,-28.5188768618651,0.0607354715466499,-0.0580946058034897,0.388351768255234
-20.5764016802749,-10.7993771846112,-3.66282287161766,-28.5188768618651,0.06064323335886,-0.0580204650759697,0.388572514057159
-20.5764016802749,-10.7993771846112,-3.66282287161766,-28.5188768618651,0.060550682246685,-0.057946003973484,0.388792723417282
-20.5764016802749,-10.7993771846112,-3.66282287161766,-28.5188768618651,0.060457818210125,-0.0578712187707424,0.389012396335602
-20.5764016802749,-10.7993771846112,-3.66282287161766,-28.5188768618651,0.0603646412491798,-0.0577961131930351,0.389231532812119
-20.5764016802749,-10.7993771846112,-3.66282287161766,-28.5188768618651,0.0602711550891399,-0.0577206835150719,0.389450132846832
-20.5764016802749,-10.7993771846112,-3.66282287161766,-28.5188768618651,0.060177356004715,-0.0576449334621429,0.389668196439743
-20.5764016802749,-10.7993771846112,-3.66282287161766,-28.5188768618651,0.0600745268166065,-0.0575623214244843,0.389844328165054
-20.5764016802749,-10.7993771846112,-3.66282287161766,-28.5188768618651,0.0599539503455162,-0.057466309517622,0.389937102794647
-20.5764016802749,-10.7993771846112,-3.66282287161766,-28.5188768618651,0.0598156228661537,-0.0573568977415562,0.389946490526199
-20.5764016802749,-10.7993771846112,-3.66282287161766,-28.5188768618651,0.0596537366509438,-0.0572449862957001,0.389889240264893
-20.5764016802749,-10.7993771846112,-3.66282287161766,-28.5188768618651,0.0594624765217304,-0.057141475379467,0.389782041311264
-20.5764016802749,-10.7993771846112,-3.66282287161766,-28.5188768618651,0.0592418424785137,-0.057046364992857,0.389624923467636
-20.5764016802749,-10.7993771846112,-3.66282287161766,-28.5188768618651,0.0589918382465839,-0.05695965513587,0.389417856931686
-20.5764016802749,-10.7993771846112,-3.66282287161766,-28.5188768618651,0.0587124638259411,-0.056881345808506,0.389160871505737
-20.5764016802749,-10.7993771846112,-3.66282287161766,-28.5188768618651,0.0584153421223164,-0.0567998103797436,0.388816893100739
-20.5764016802749,-10.7993771846112,-3.66282287161766,-28.5188768618651,0.0581121034920216,-0.0567034259438515,0.38834884762764
-20.5764016802749,-10.7993771846112,-3.66282287161766,-28.5188768618651,0.0578027479350567,-0.0565921887755394,0.387756764888763
-20.5764016802749,-10.7993771846112,-3.66282287161766,-28.5188768618651,0.0574872717261314,-0.0564661026000977,0.38704064488411
-20.5764016802749,-10.7993771846112,-3.66282287161766,-28.5188768618651,0.0571656823158264,-0.0563251674175262,0.386200457811356
-20.5764016802749,-10.7993771846112,-3.66282287161766,-28.5188768618651,0.05683434009552,-0.0561475865542889,0.385235518217087
-20.5764016802749,-10.7993771846112,-3.66282287161766,-28.5188768618651,0.0564896166324615,-0.0559115596115589,0.384145081043243
-20.5764016802749,-10.7993771846112,-3.66282287161766,-28.5188768618651,0.056131511926651,-0.0556170865893364,0.382929146289825
-20.5764016802749,-10.7993771846112,-3.66282287161766,-28.5188768618651,0.0557600259780884,-0.0552641674876213,0.381587713956833
-20.5764016802749,-10.7993771846112,-3.66282287161766,-28.5188768618651,0.055375162512064,-0.0548528023064137,0.380120784044266
-20.5764016802749,-10.7993771846112,-3.66282287161766,-28.5188768618651,0.0549820065498352,-0.0543909855186939,0.378516018390656
-20.5764016802749,-10.7993771846112,-3.66282287161766,-28.5188768618651,0.0545856431126595,-0.0538867115974426,0.376761049032211
-20.5764016802749,-10.7993771846112,-3.66282287161766,-28.5188768618651,0.0541860722005367,-0.0533399768173695,0.374855905771255
-20.5764016802749,-10.7993771846112,-3.66282287161766,-28.5188768618651,0.053792018443346,-0.0527573227882385,0.372841984033585
-20.5764016802749,-10.7993771846112,-3.66282287161766,-28.5188768618651,0.0534121990203857,-0.0521452911198139,0.370760709047318
-20.5764016802749,-10.7993771846112,-3.66282287161766,-28.5188768618651,0.0530444346368313,-0.0515402145683765,0.368658572435379
-20.5764016802749,-10.7993771846112,-3.66282287161766,-28.5188768618651,0.0526923574507236,-0.0509675219655037,0.366565376520157
-20.5764016802749,-10.7993771846112,-3.66282287161766,-28.5188768618651,0.0523617826402187,-0.0504163131117821,0.364464402198792
-20.5764016802749,-10.7993771846112,-3.66282287161766,-28.5188768618651,0.0520527102053165,-0.049886591732502,0.362355649471283
-20.5764016802749,-10.7993771846112,-3.66282287161766,-28.5188768618651,0.0517651438713074,-0.0493783578276634,0.360239148139954
-20.5764016802749,-10.7993771846112,-3.66282287161766,-28.5188768618651,0.0515027120709419,-0.0489134080708027,0.358133763074875
-20.5764016802749,-10.7993771846112,-3.66282287161766,-28.5188768618651,0.05125742405653,-0.0485251694917679,0.356095463037491
-20.5764016802749,-10.7993771846112,-3.66282287161766,-28.5188768618651,0.0510176569223404,-0.0482252687215805,0.354161292314529
-20.5764016802749,-10.7993771846112,-3.66282287161766,-28.5188768618651,0.0507834106683731,-0.0480137020349503,0.352331250905991
-20.5764016802749,-10.7993771846112,-3.66282287161766,-28.5188768618651,0.0505546852946281,-0.0478904731571674,0.350605338811874
-20.5764016802749,-10.7993771846112,-3.66282287161766,-28.5188768618651,0.0503445602953434,-0.0478308759629726,0.348927617073059
-20.5764016802749,-10.7993771846112,-3.66282287161766,-28.5188768618651,0.0501697473227978,-0.0478320084512234,0.34724286198616
-20.5764016802749,-10.7993771846112,-3.66282287161766,-28.5188768618651,0.0500338822603226,-0.0479156635701656,0.345551788806915
-20.5764016802749,-10.7993771846112,-3.66282287161766,-28.5188768618651,0.0499369651079178,-0.0480818450450897,0.343854427337646
-20.5764016802749,-10.7993771846112,-3.66282287161766,-28.5188768618651,0.0498789958655834,-0.0483305528759956,0.342150747776031
-20.5764016802749,-10.7993771846112,-3.66282287161766,-28.5188768618651,0.0498505271971226,-0.0487032048404217,0.340475648641586
-20.5764016802749,-10.7993771846112,-3.66282287161766,-28.5188768618651,0.0498370304703712,-0.0492332242429256,0.338876336812973
-20.5764016802749,-10.7993771846112,-3.66282287161766,-28.5188768618651,0.0498334169387817,-0.0499126203358173,0.337365180253983
-20.5764016802749,-10.7993771846112,-3.66282287161766,-28.5188768618651,0.0498396903276443,-0.0507413931190968,0.335942208766937
-20.5764016802749,-10.7993771846112,-3.66282287161766,-28.5188768618651,0.0498558506369591,-0.0517195425927639,0.334607392549515
-20.5764016802749,-10.7993771846112,-3.66282287161766,-28.5188768618651,0.0499080531299114,-0.0528281778097153,0.333387613296509
-20.5764016802749,-10.7993771846112,-3.66282287161766,-28.5188768618651,0.0500246398150921,-0.0540120750665665,0.332263261079788
-20.5764016802749,-10.7993771846112,-3.66282287161766,-28.5188768618651,0.0502077899873257,-0.0552349016070366,0.331187844276428
-20.5764016802749,-10.7993771846112,-3.66282287161766,-28.5188768618651,0.0504575036466122,-0.0564966611564159,0.330161333084106
-20.5764016802749,-10.7993771846112,-3.66282287161766,-28.5188768618651,0.0507737845182419,-0.0577973537147045,0.329183757305145
-20.5764016802749,-10.7993771846112,-3.66282287161766,-28.5188768618651,0.0511689819395542,-0.0591209903359413,0.328209340572357
-20.5764016802749,-10.7993771846112,-3.66282287161766,-28.5188768618651,0.0516518205404282,-0.0604297891259193,0.327173411846161
-20.5764016802749,-10.7993771846112,-3.66282287161766,-28.5188768618651,0.0522186644375324,-0.0617019534111023,0.326057076454163
-20.5764016802749,-10.7993771846112,-3.66282287161766,-28.5188768618651,0.052869513630867,-0.0629374831914902,0.324860334396362
-20.5764016802749,-10.7993771846112,-3.66282287161766,-28.5188768618651,0.0536043681204319,-0.064136378467083,0.32358318567276
-20.5764016802749,-10.7993771846112,-3.66282287161766,-28.5188768618651,0.0544159635901451,-0.0652695745229721,0.322234332561493
-20.5764016802749,-10.7993771846112,-3.66282287161766,-28.5188768618651,0.0552839562296867,-0.0663327127695084,0.320878475904465
-20.5764016802749,-10.7993771846112,-3.66282287161766,-28.5188768618651,0.0561952665448189,-0.0673504993319511,0.319571554660797
-20.5764016802749,-10.7993771846112,-3.66282287161766,-28.5188768618651,0.0571498945355415,-0.0683229267597198,0.31831356883049
-20.5764016802749,-10.7993771846112,-3.66282287161766,-28.5188768618651,0.058147843927145,-0.0692500025033951,0.317104518413544
-20.5764016802749,-10.7993771846112,-3.66282287161766,-28.5188768618651,0.059223260730505,-0.0701687857508659,0.315986543893814
-20.5764016802749,-10.7993771846112,-3.66282287161766,-28.5188768618651,0.0604197457432747,-0.0710749179124832,0.314966917037964
-20.5764016802749,-10.7993771846112,-3.66282287161766,-28.5188768618651,0.061746746301651,-0.071926973760128,0.314010769128799
-20.5764016802749,-10.7993771846112,-3.66282287161766,-28.5188768618651,0.0632042661309242,-0.072724960744381,0.313118100166321
-20.5764016802749,-10.7993771846112,-3.66282287161766,-28.5188768618651,0.0647922977805138,-0.073468878865242,0.312288910150528
-20.5764016802749,-10.7993771846112,-3.66282287161766,-28.5188768618651,0.0664701536297798,-0.0741776153445244,0.311529725790024
-20.5764016802749,-10.7993771846112,-3.66282287161766,-28.5188768618651,0.0681709870696068,-0.0748889595270157,0.31082022190094
-20.5764016802749,-10.7993771846112,-3.66282287161766,-28.5188768618651,0.0698686391115189,-0.0756218060851097,0.310133516788483
-20.5764016802749,-10.7993771846112,-3.66282287161766,-28.5188768618651,0.0715631172060966,-0.0763761475682259,0.30946958065033
-20.5764016802749,-10.7993771846112,-3.66282287161766,-28.5188768618651,0.0732544139027596,-0.0771519914269447,0.308828443288803
-20.5764016802749,-10.7993771846112,-3.66282287161766,-28.5188768618651,0.0749352648854256,-0.0778999254107475,0.308194845914841
-20.5764016802749,-10.7993771846112,-3.66282287161766,-28.5188768618651,0.076586052775383,-0.0785865262150764,0.307599276304245
-20.5764016802749,-10.7993771846112,-3.66282287161766,-28.5188768618651,0.0781944245100021,-0.0792277753353119,0.307087540626526
-20.5764016802749,-10.7993771846112,-3.66282287161766,-28.5188768618651,0.079760380089283,-0.0798236802220345,0.306659638881683
-20.5764016802749,-10.7993771846112,-3.66282287161766,-28.5188768618651,0.0812839269638062,-0.0803742334246635,0.306315571069717
-20.5764016802749,-10.7993771846112,-3.66282287161766,-28.5188768618651,0.0827657878398895,-0.0808656364679337,0.306088030338287
-20.5764016802749,-10.7993771846112,-3.66282287161766,-28.5188768618651,0.084213949739933,-0.0813131481409073,0.306001007556915
-20.5764016802749,-10.7993771846112,-3.66282287161766,-28.5188768618651,0.0856356844305992,-0.0817458257079124,0.306045770645142
-20.5764016802749,-10.7993771846112,-3.66282287161766,-28.5188768618651,0.0870309919118881,-0.0821636766195297,0.306222319602966
-20.5764016802749,-10.7993771846112,-3.66282287161766,-28.5188768618651,0.0883998796343803,-0.0825667008757591,0.306530654430389
-20.5764016802749,-10.7993771846112,-3.66282287161766,-28.5188768618651,0.0897401571273804,-0.0829788744449615,0.306975156068802
-20.5764016802749,-10.7993771846112,-3.66282287161766,-28.5188768618651,0.0910155028104782,-0.0833871215581894,0.307518035173416
-20.5764016802749,-10.7993771846112,-3.66282287161766,-28.5188768618651,0.0921917632222176,-0.0837543830275536,0.308117121458054
-20.5764016802749,-10.7993771846112,-3.66282287161766,-28.5188768618651,0.0932689383625984,-0.084080658853054,0.308772444725037
-20.5764016802749,-10.7993771846112,-3.66282287161766,-28.5188768618651,0.0942470282316208,-0.0843659490346909,0.309484004974365
-20.5764016802749,-10.7993771846112,-3.66282287161766,-28.5188768618651,0.0951231271028519,-0.0846095308661461,0.310241609811783
-20.5764016802749,-10.7993771846112,-3.66282287161766,-28.5188768618651,0.0959350168704987,-0.0847917795181274,0.311028569936752
-20.5764016802749,-10.7993771846112,-3.66282287161766,-28.5188768618651,0.0967233926057816,-0.0848938077688217,0.311838328838348
-20.5764016802749,-10.7993771846112,-3.66282287161766,-28.5188768618651,0.0974882543087006,-0.0849156156182289,0.312670886516571
-20.5764016802749,-10.7993771846112,-3.66282287161766,-28.5188768618651,0.0982296019792557,-0.084857203066349,0.313526272773743
-20.5764016802749,-10.7993771846112,-3.66282287161766,-28.5188768618651,0.0989670529961586,-0.0847439989447594,0.314394295215607
-20.5764016802749,-10.7993771846112,-3.66282287161766,-28.5188768618651,0.0997274965047836,-0.0846508517861366,0.315280050039291
-20.5764016802749,-10.7993771846112,-3.66282287161766,-28.5188768618651,0.100518196821213,-0.084627166390419,0.316198766231537
-20.5764016802749,-10.7993771846112,-3.66282287161766,-28.5188768618651,0.101339153945446,-0.0846729502081871,0.317150473594666
-20.5764016802749,-10.7993771846112,-3.66282287161766,-28.5188768618651,0.102190375328064,-0.0847881957888603,0.318135172128677
-20.5764016802749,-10.7993771846112,-3.66282287161766,-28.5188768618651,0.10306604206562,-0.0849569216370583,0.319107800722122
-20.5764016802749,-10.7993771846112,-3.66282287161766,-28.5188768618651,0.103959612548351,-0.085176944732666,0.319990634918213
-20.5764016802749,-10.7993771846112,-3.66282287161766,-28.5188768618651,0.104870364069939,-0.0854620710015297,0.320750951766968
-20.5764016802749,-10.7993771846112,-3.66282287161766,-28.5188768618651,0.105798296630383,-0.0858123078942299,0.321388781070709
-20.5764016802749,-10.7993771846112,-3.66282287161766,-28.5188768618651,0.106743417680264,-0.086227647960186,0.321904093027115
-20.5764016802749,-10.7993771846112,-3.66282287161766,-28.5188768618651,0.107704266905785,-0.0866775810718536,0.322326689958572
-20.5764016802749,-10.7993771846112,-3.66282287161766,-28.5188768618651,0.108681574463844,-0.0871076062321663,0.322682023048401
-20.5764016802749,-10.7993771846112,-3.66282287161766,-28.5188768618651,0.109677515923977,-0.0874937474727631,0.322965711355209
-20.5764016802749,-10.7993771846112,-3.66282287161766,-28.5188768618651,0.110692098736763,-0.0878359973430634,0.323177754878998
-20.5764016802749,-10.7993771846112,-3.66282287161766,-28.5188768618651,0.111725315451622,-0.0881343632936478,0.323318153619766
-20.5764016802749,-10.7993771846112,-3.66282287161766,-28.5188768618651,0.112799696624279,-0.088401198387146,0.323364406824112
-20.5764016802749,-10.7993771846112,-3.66282287161766,-28.5188768618651,0.113940671086311,-0.0886495858430862,0.323304146528244
-20.5764016802749,-10.7993771846112,-3.66282287161766,-28.5188768618651,0.115151152014732,-0.0888802409172058,0.323147535324097
-20.5764016802749,-10.7993771846112,-3.66282287161766,-28.5188768618651,0.116431139409542,-0.0890931710600853,0.322894603013992
-20.5764016802749,-10.7993771846112,-3.66282287161766,-28.5188768618651,0.11778062582016,-0.0892883762717247,0.322545319795609
-20.5764016802749,-10.7993771846112,-3.66282287161766,-28.5188768618651,0.119161106646061,-0.0894651338458061,0.322099715471268
-20.5764016802749,-10.7993771846112,-3.66282287161766,-28.5188768618651,0.120514452457428,-0.0895972847938538,0.321567952632904
-20.5764016802749,-10.7993771846112,-3.66282287161766,-28.5188768618651,0.121821045875549,-0.0896593928337097,0.320960193872452
-20.5764016802749,-10.7993771846112,-3.66282287161766,-28.5188768618651,0.123080886900425,-0.089651457965374,0.320276439189911
-20.5764016802749,-10.7993771846112,-3.66282287161766,-28.5188768618651,0.124293975532055,-0.0895734876394272,0.319516718387604
-20.5764016802749,-10.7993771846112,-3.66282287161766,-28.5188768618651,0.125429794192314,-0.0894138514995575,0.318695545196533
-20.5764016802749,-10.7993771846112,-3.66282287161766,-28.5188768618651,0.126463636755943,-0.0891769081354141,0.317872494459152
-20.5764016802749,-10.7993771846112,-3.66282287161766,-28.5188768618651,0.127401322126389,-0.0888786464929581,0.317092627286911
-20.5764016802749,-10.7993771846112,-3.66282287161766,-28.5188768618651,0.12824285030365,-0.0885190665721893,0.31635594367981
-20.5764016802749,-10.7993771846112,-3.66282287161766,-28.5188768618651,0.128988221287727,-0.0880981609225273,0.315662443637848
-20.5764016802749,-10.7993771846112,-3.66282287161766,-28.5188768618651,0.129636704921722,-0.0876595377922058,0.315004855394363
-20.5764016802749,-10.7993771846112,-3.66282287161766,-28.5188768618651,0.130189031362534,-0.0872773081064224,0.314346134662628
-20.5764016802749,-10.7993771846112,-3.66282287161766,-28.5188768618651,0.130646646022797,-0.0869819894433022,0.313656479120255
-20.5764016802749,-10.7993771846112,-3.66282287161766,-28.5188768618651,0.131009563803673,-0.086773581802845,0.312935888767242
-20.5764016802749,-10.7993771846112,-3.66282287161766,-28.5188768618651,0.131277769804001,-0.0866520926356316,0.312184393405914
-20.5764016802749,-10.7993771846112,-3.66282287161766,-28.5188768618651,0.131451994180679,-0.0866124257445335,0.311354726552963
-20.5764016802749,-10.7993771846112,-3.66282287161766,-28.5188768618651,0.131510451436043,-0.0866371467709541,0.310422211885452
-20.5764016802749,-10.7993771846112,-3.66282287161766,-28.5188768618651,0.131430611014366,-0.0867139101028442,0.309409350156784
-20.5764016802749,-10.7993771846112,-3.66282287161766,-28.5188768618651,0.131212472915649,-0.0868427082896233,0.308316171169281
-20.5764016802749,-10.7993771846112,-3.66282287161766,-28.5188768618651,0.130856037139893,-0.0870235413312912,0.307142645120621
-20.5764016802749,-10.7993771846112,-3.66282287161766,-28.5188768618651,0.130377277731895,-0.0872062742710114,0.305901139974594
-20.5764016802749,-10.7993771846112,-3.66282287161766,-28.5188768618651,0.129830703139305,-0.0873414948582649,0.304604023694992
-20.5764016802749,-10.7993771846112,-3.66282287161766,-28.5188768618651,0.129254832863808,-0.0874299332499504,0.303251266479492
-20.5764016802749,-10.7993771846112,-3.66282287161766,-28.5188768618651,0.128649652004242,-0.0874715894460678,0.301842898130417
-20.5764016802749,-10.7993771846112,-3.66282287161766,-28.5188768618651,0.128015175461769,-0.0874664634466171,0.300378918647766
-20.5764016802749,-10.7993771846112,-3.66282287161766,-28.5188768618651,0.127352118492126,-0.0874101966619492,0.298853486776352
-20.5764016802749,-10.7993771846112,-3.66282287161766,-28.5188768618651,0.126691728830338,-0.0873100608587265,0.297246277332306
-20.5764016802749,-10.7993771846112,-3.66282287161766,-28.5188768618651,0.126064538955688,-0.0871776714920998,0.295542776584625
-20.5764016802749,-10.7993771846112,-3.66282287161766,-28.5188768618651,0.125470533967018,-0.0870130360126495,0.293742954730988
-20.5764016802749,-10.7993771846112,-3.66282287161766,-28.5188768618651,0.124909713864326,-0.0868161544203758,0.291846841573715
-20.5764016802749,-10.7993771846112,-3.66282287161766,-28.5188768618651,0.124397344887257,-0.0866386145353317,0.289833337068558
-20.5764016802749,-10.7993771846112,-3.66282287161766,-28.5188768618651,0.123949408531189,-0.0864884108304977,0.28768864274025
-20.5764016802749,-10.7993771846112,-3.66282287161766,-28.5188768618651,0.123566634953022,-0.0863219425082207,0.285420030355453
-20.5764016802749,-10.7993771846112,-3.66282287161766,-28.5188768618651,0.123249024152756,-0.0861392170190811,0.283027499914169
-20.5764016802749,-10.7993771846112,-3.66282287161766,-28.5188768618651,0.12299657613039,-0.0859402269124985,0.280511081218719
-20.5764016802749,-10.7993771846112,-3.66282287161766,-28.5188768618651,0.122822374105453,-0.085728608071804,0.277929604053497
-20.5764016802749,-10.7993771846112,-3.66282287161766,-28.5188768618651,0.122738763689995,-0.0855130851268768,0.275389134883881
-20.5764016802749,-10.7993771846112,-3.66282287161766,-28.5188768618651,0.122745022177696,-0.0852987393736839,0.272936940193176
-20.5764016802749,-10.7993771846112,-3.66282287161766,-28.5188768618651,0.122841149568558,-0.0850855708122253,0.270572990179062
-20.5764016802749,-10.7993771846112,-3.66282287161766,-28.5188768618651,0.12302715331316,-0.0848735868930817,0.26829731464386
-20.5764016802749,-10.7993771846112,-3.66282287161766,-28.5188768618651,0.123289950191975,-0.0846526101231575,0.266093909740448
-20.5764016802749,-10.7993771846112,-3.66282287161766,-28.5188768618651,0.123600475490093,-0.0844626054167748,0.263934463262558
-20.5764016802749,-10.7993771846112,-3.66282287161766,-28.5188768618651,0.123942740261555,-0.0843537077307701,0.261806607246399
-20.5764016802749,-10.7993771846112,-3.66282287161766,-28.5188768618651,0.124316744506359,-0.0843259170651436,0.259710341691971
-20.5764016802749,-10.7993771846112,-3.66282287161766,-28.5188768618651,0.124722495675087,-0.0843792408704758,0.257645666599274
-20.5764016802749,-10.7993771846112,-3.66282287161766,-28.5188768618651,0.12513455748558,-0.0845267474651337,0.255592972040176
-20.5764016802749,-10.7993771846112,-3.66282287161766,-28.5188768618651,0.125526770949364,-0.0847858861088753,0.253538429737091
-20.5764016802749,-10.7993771846112,-3.66282287161766,-28.5188768618651,0.125898420810699,-0.0851610079407692,0.251487880945206
-20.5764016802749,-10.7993771846112,-3.66282287161766,-28.5188768618651,0.126249492168427,-0.085652120411396,0.249441310763359
-20.5764016802749,-10.7993771846112,-3.66282287161766,-28.5188768618651,0.126579999923706,-0.0862592235207558,0.247398734092712
-20.5764016802749,-10.7993771846112,-3.66282287161766,-28.5188768618651,0.126911014318466,-0.0869895815849304,0.245404466986656
-20.5764016802749,-10.7993771846112,-3.66282287161766,-28.5188768618651,0.127248331904411,-0.0877988710999489,0.243523895740509
-20.5764016802749,-10.7993771846112,-3.66282287161766,-28.5188768618651,0.12757670879364,-0.0886355042457581,0.24177810549736
-20.5764016802749,-10.7993771846112,-3.66282287161766,-28.5188768618651,0.127896144986153,-0.0894994735717773,0.24016709625721
-20.5764016802749,-10.7993771846112,-3.66282287161766,-28.5188768618651,0.128206640481949,-0.0903907865285873,0.238690868020058
-20.746199578641,-10.8164463760677,-3.58092372631835,-28.5213921560205,0.12852418422699,-0.0912912786006927,0.237349420785904
-20.8939993687167,-10.8690530644908,-3.45086109401659,-28.4217130269653,0.128851681947708,-0.092179149389267,0.236083909869194
-21.0175095808886,-10.9420868180995,-3.2860019336602,-28.2238243789231,0.129176050424576,-0.0930507704615593,0.234835460782051
-21.1171885090792,-11.0167995085727,-3.10353233532494,-27.9514095433793,0.129497289657593,-0.0939061343669891,0.233604088425636
-21.1971607985931,-11.0741631847788,-2.9272157815847,-27.6426359895113,0.129815399646759,-0.0947452485561371,0.23238979279995
-21.2648737256743,-11.1013059974226,-2.78145227686805,-27.3421572540094,0.130104959011078,-0.0956022590398788,0.231151878833771
-21.3266288317602,-11.0878745025061,-2.68364008520229,-27.0909952409917,0.130353599786758,-0.0965214893221855,0.22986564040184
-21.3865507621553,-11.0335888772184,-2.64247833860108,-26.9175953837991,0.13057442009449,-0.0975131168961525,0.228547066450119
-21.4486495886832,-10.9460043374501,-2.65542094964579,-26.8317786343304,0.130767405033112,-0.0985771417617798,0.227196156978607
-21.5120087234987,-10.8379927324963,-2.70697921987308,-26.8237240406869,0.130932554602623,-0.0997135639190674,0.225812926888466
-21.5734201091426,-10.7241048485165,-2.77105575324197,-26.8676569032092,0.131045907735825,-0.100880965590477,0.224437326192856
-21.6302485555593,-10.6177721804272,-2.81327836960094,-26.9295783582021,0.131108909845352,-0.102024845778942,0.223128944635391
-21.6784839909251,-10.5287885266051,-2.80670097710281,-26.9763656556648,0.131146982312202,-0.103132128715515,0.221907392144203
-21.71812641524,-10.4675073310484,-2.72819661502834,-26.9847735209594,0.131160140037537,-0.104202821850777,0.220772683620453
-21.7478009467358,-10.4333689481355,-2.57267310854026,-26.9463375653271,0.131148368120193,-0.105236917734146,0.219724804162979
-21.768424173258,-10.4232953269481,-2.34352524086343,-26.8683634465113,0.131119668483734,-0.106212615966797,0.218799367547035
-21.7833187257463,-10.4372864674862,-2.06833562569967,-26.7705637226396,0.131060972809792,-0.107100859284401,0.217987656593323
-21.7935157655267,-10.469186267913,-1.77977905158809,-26.6768478190538,0.130951195955276,-0.107894375920296,0.217245355248451
-21.8008484682902,-10.5153570316886,-1.51838074327526,-26.6080728940309,0.130790337920189,-0.108593173325062,0.216572448611259
-21.8063479953627,-10.5721610622731,-1.31893722881579,-26.5738055438808,0.13057841360569,-0.109197244048119,0.215968951582909
-21.8070354362468,-10.6401580052881,-1.20797025215376,-26.5692130124173,0.130315408110619,-0.109713859856129,0.21540579199791
-21.8005047478481,-10.7103935307892,-1.1948154671575,-26.5762077911078,0.129985347390175,-0.110168449580669,0.214853912591934
-21.7845790340338,-10.7789501194257,-1.271410263668,-26.5684782073832,0.129572242498398,-0.110579177737236,0.214313313364983
-21.7594874417651,-10.8382725553071,-1.41441550701447,-26.5209137122882,0.129076093435287,-0.110946044325829,0.213783994317055
-21.7254591180034,-10.8802459769212,-1.59179293051247,-26.4182388396323,0.128496900200844,-0.111269056797028,0.213265940546989
-21.6878790163408,-10.8925581805947,-1.76619991868873,-26.2625025649913,0.127816498279572,-0.111557655036449,0.212759897112846
-21.65568386827,-10.8648557223294,-1.90199124768241,-26.0753251134085,0.127042144536972,-0.111787140369415,0.212307274341583
